Var1_1,Var1_2
-74,-102
-72,-105
-78,-103
-78,-105
-85,-107
-89,-113
-90,-103
-92,-109
-89,-108
-98,-107
-94,-100
-94,-104
-94,-105
-93,-104
-94,-108
-92,-101
-90,-106
-90,-107
-88,-108
-92,-108
-92,-112
-90,-107
-86,-107
-87,-106
-85,-110
-88,-107
-86,-109
-81,-112
-84,-109
-83,-107
-76,-109
-64,-112
-51,-111
-24,-113
13,-119
61,-116
103,-122
139,-127
163,-134
169,-151
176,-201
172,-278
156,-388
137,-508
123,-596
119,-640
114,-665
115,-680
122,-684
117,-686
110,-687
91,-676
72,-654
66,-627
74,-604
91,-570
98,-546
88,-522
53,-480
13,-435
-25,-381
-49,-323
-62,-277
-69,-235
-75,-201
-88,-166
-96,-137
-101,-107
-100,-81
-103,-58
-101,-47
-102,-43
-99,-34
-101,-37
-102,-34
-100,-32
-102,-28
-101,-26
-98,-28
-100,-21
-102,-23
-100,-17
-102,-21
-103,-18
-104,-14
-107,-13
-106,-11
-105,-10
-107,-3
-106,-3
-109,0
-110,0
-114,3
-115,5
-116,9
-117,13
-117,16
-115,18
-117,21
-117,22
-122,29
-118,34
-122,40
-124,42
-124,50
-126,50
-128,61
-128,64
-126,68
-129,71
-128,74
-134,79
-131,83
-131,91
-126,99
-128,104
-130,105
-128,106
-124,109
-128,115
-131,118
-127,117
-124,123
-124,124
-121,120
-120,123
-118,122
-118,123
-116,122
-115,120
-111,119
-108,114
-107,109
-105,102
-98,95
-97,83
-92,78
-91,66
-88,55
-88,46
-89,34
-86,21
-79,11
-81,2
-82,-8
-77,-18
-78,-32
-80,-34
-79,-44
-83,-52
-84,-61
-84,-67
-79,-71
-81,-71
-83,-79
-82,-78
-83,-74
-88,-80
-89,-81
-86,-76
-83,-82
-86,-82
-85,-82
-89,-85
-89,-82
-92,-83
-92,-81
-93,-78
-92,-77
-89,-79
-91,-80
-89,-80
-90,-79
-86,-79
-91,-79
-88,-78
-89,-76
-88,-78
-84,-76
-85,-81
-85,-81
-84,-80
-86,-85
-86,-79
-89,-78
-84,-81
-83,-84
-82,-84
-82,-84
-84,-86
-82,-90
-80,-86
-81,-86
-82,-86
-83,-92
-83,-89
-77,-86
-78,-92
-75,-92
-73,-89
-78,-92
-74,-94
-76,-89
-77,-90
-77,-89
-75,-90
-71,-90
-65,-90
-58,-87
-59,-93
-54,-94
-53,-87
-46,-86
-41,-81
-37,-76
-31,-73
-26,-74
-22,-72
-26,-73
-32,-70
-53,-70
-56,-70
-60,-73
-61,-72
-64,-78
-61,-86
-66,-92
-66,-95
-65,-95
-70,-96
-76,-104
-78,-102
-77,-103
-81,-106
-80,-105
-86,-107
-89,-107
-93,-104
-92,-105
-95,-102
-93,-100
-95,-101
-90,-102
-87,-102
-88,-102
-89,-105
-94,-108
-97,-104
-96,-100
-95,-104
-91,-102
-87,-102
-82,-102
-84,-103
-91,-106
-92,-109
-99,-104
-98,-106
-93,-103
-85,-101
-76,-102
-55,-104
-33,-104
3,-101
52,-103
103,-108
135,-100
153,-92
160,-104
161,-170
149,-290
132,-418
110,-546
101,-647
95,-683
92,-701
97,-706
102,-713
104,-726
94,-722
79,-713
59,-700
46,-672
54,-636
73,-610
94,-595
91,-569
56,-537
6,-483
-28,-413
-61,-342
-74,-281
-80,-242
-84,-205
-93,-170
-108,-138
-117,-94
-119,-61
-114,-41
-111,-27
-108,-20
-112,-20
-110,-24
-114,-22
-113,-14
-116,-13
-116,-12
-117,-13
-116,-11
-114,-6
-113,-7
-113,-3
-114,-1
-116,1
-124,0
-124,0
-123,4
-123,7
-123,10
-126,10
-127,7
-126,14
-129,17
-131,26
-132,25
-133,34
-138,31
-134,37
-135,40
-137,45
-137,50
-143,53
-142,57
-144,60
-149,72
-147,74
-151,82
-152,85
-152,86
-151,94
-152,103
-156,111
-152,112
-153,118
-153,119
-151,127
-149,132
-143,134
-148,134
-148,139
-149,145
-149,150
-145,149
-143,154
-139,154
-138,149
-137,149
-133,153
-132,144
-128,145
-131,138
-117,135
-115,125
-109,116
-107,107
-104,93
-106,82
-107,71
-105,63
-108,47
-100,39
-96,23
-99,9
-97,-3
-96,-16
-100,-23
-99,-36
-100,-44
-101,-50
-101,-54
-102,-64
-100,-69
-101,-70
-103,-73
-99,-76
-106,-78
-108,-82
-106,-82
-106,-82
-111,-80
-109,-79
-108,-80
-111,-84
-109,-82
-108,-82
-116,-79
-117,-77
-116,-77
-116,-75
-115,-78
-112,-82
-113,-78
-118,-82
-118,-74
-116,-76
-117,-79
-117,-80
-115,-82
-114,-76
-113,-79
-112,-84
-109,-85
-114,-82
-114,-89
-120,-88
-119,-88
-118,-84
-118,-84
-113,-84
-114,-85
-112,-94
-115,-91
-118,-90
-117,-87
-115,-85
-113,-91
-111,-91
-107,-91
-109,-95
-110,-96
-112,-95
-109,-91
-111,-89
-114,-92
-109,-93
-104,-91
-98,-90
-93,-90
-91,-93
-84,-94
-82,-96
-83,-90
-81,-86
-74,-83
-70,-80
-64,-79
-60,-76
-55,-71
-50,-70
-53,-67
-61,-67
-66,-64
-75,-68
-81,-69
-87,-71
-83,-74
-85,-80
-85,-87
-94,-85
-98,-92
-99,-100
-100,-95
-104,-101
-103,-98
-105,-103
-109,-101
-115,-102
-116,-98
-121,-100
-119,-102
-117,-98
-117,-95
-111,-104
-110,-100
-111,-102
-112,-99
-120,-102
-120,-100
-123,-102
-121,-96
-120,-102
-116,-100
-116,-98
-112,-103
-110,-101
-111,-102
-112,-102
-109,-98
-106,-98
-102,-96
-89,-99
-76,-101
-52,-102
-12,-99
36,-103
84,-107
116,-101
137,-96
141,-108
136,-179
125,-307
107,-435
89,-563
77,-679
73,-712
75,-726
76,-733
84,-735
84,-737
69,-740
53,-738
41,-722
38,-691
47,-661
63,-644
80,-626
70,-604
34,-560
-17,-490
-56,-412
-73,-335
-82,-272
-86,-223
-94,-191
-108,-157
-120,-110
-123,-74
-121,-38
-117,-17
-118,-11
-118,-15
-117,-6
-115,-9
-123,0
-120,2
-122,7
-118,10
-116,4
-116,6
-118,5
-119,8
-121,11
-125,15
-125,17
-122,24
-122,28
-125,25
-127,29
-136,28
-136,33
-136,37
-138,40
-137,46
-137,46
-139,46
-138,50
-142,61
-141,65
-145,65
-148,73
-150,72
-146,77
-148,89
-145,95
-146,95
-148,97
-154,108
-154,115
-158,121
-161,124
-161,136
-160,140
-160,144
-162,152
-159,151
-156,154
-154,162
-150,161
-151,164
-154,169
-153,170
-149,176
-143,175
-143,174
-141,173
-139,176
-142,178
-137,177
-135,175
-135,169
-128,165
-126,157
-121,149
-119,136
-115,127
-114,117
-115,108
-117,94
-117,83
-118,72
-117,52
-111,41
-106,27
-108,17
-110,4
-115,-7
-113,-19
-113,-25
-114,-32
-114,-43
-118,-49
-116,-58
-111,-64
-113,-66
-116,-69
-118,-76
-123,-80
-127,-78
-127,-78
-126,-77
-125,-76
-123,-75
-128,-74
-131,-73
-132,-76
-129,-77
-132,-70
-134,-73
-136,-71
-142,-75
-143,-76
-142,-71
-144,-73
-142,-70
-142,-71
-141,-72
-141,-66
-141,-68
-140,-70
-140,-71
-138,-72
-137,-74
-141,-74
-143,-74
-145,-75
-139,-74
-134,-75
-135,-78
-135,-83
-137,-82
-139,-79
-141,-83
-148,-83
-148,-81
-147,-82
-143,-81
-141,-85
-142,-87
-144,-89
-144,-89
-151,-87
-149,-88
-145,-86
-138,-88
-137,-86
-133,-88
-127,-89
-125,-93
-120,-92
-121,-87
-117,-90
-112,-85
-111,-78
-106,-76
-102,-79
-94,-76
-96,-75
-95,-70
-94,-70
-94,-62
-98,-62
-101,-63
-104,-64
-103,-65
-105,-71
-107,-85
-114,-87
-117,-90
-119,-89
-121,-93
-131,-96
-131,-96
-132,-96
-135,-98
-138,-98
-137,-101
-144,-102
-150,-101
-148,-99
-150,-91
-147,-91
-145,-93
-149,-92
-148,-92
-149,-95
-143,-92
-143,-90
-144,-96
-148,-96
-148,-95
-146,-94
-149,-94
-142,-96
-147,-94
-146,-96
-143,-92
-140,-92
-132,-93
-125,-96
-118,-92
-110,-85
-92,-94
-66,-96
-30,-97
8,-100
54,-98
90,-94
115,-88
126,-116
121,-201
116,-329
98,-457
72,-585
53,-678
47,-711
46,-722
45,-724
45,-733
37,-738
23,-739
1,-730
-17,-711
-33,-675
-21,-641
0,-614
16,-595
10,-559
-22,-512
-70,-447
-101,-369
-118,-298
-119,-248
-124,-210
-126,-176
-135,-141
-138,-102
-145,-66
-145,-31
-146,-13
-143,-8
-145,-2
-149,-5
-151,-2
-152,-2
-145,2
-140,1
-138,0
-138,-2
-139,-2
-139,4
-141,8
-142,9
-144,17
-145,21
-148,21
-146,20
-149,20
-149,23
-152,22
-154,25
-159,33
-159,37
-156,34
-151,37
-148,41
-144,42
-147,47
-150,51
-155,49
-155,56
-159,62
-160,64
-162,68
-165,77
-163,85
-164,84
-165,91
-166,94
-170,99
-171,105
-171,114
-174,118
-170,119
-165,125
-163,130
-163,135
-164,135
-164,135
-163,138
-161,144
-157,148
-152,150
-149,146
-152,148
-151,148
-146,146
-146,150
-142,148
-140,146
-133,140
-130,135
-125,135
-124,121
-121,114
-120,107
-117,91
-115,87
-116,75
-113,64
-112,51
-113,43
-116,29
-111,14
-114,6
-121,-4
-121,-12
-117,-18
-115,-33
-111,-45
-112,-52
-114,-55
-113,-59
-114,-62
-112,-65
-111,-62
-113,-63
-119,-64
-120,-67
-118,-70
-119,-79
-119,-81
-122,-81
-121,-83
-124,-81
-127,-80
-127,-82
-123,-84
-127,-86
-126,-90
-122,-84
-123,-80
-125,-72
-128,-66
-128,-61
-135,-60
-122,-57
-121,-63
-122,-72
-122,-75
-121,-77
-123,-81
-122,-80
-122,-80
-119,-79
-119,-79
-117,-81
-111,-85
-117,-87
-114,-89
-117,-87
-119,-90
-118,-91
-118,-91
-118,-89
-115,-87
-111,-91
-110,-93
-115,-90
-114,-92
-117,-90
-117,-92
-114,-91
-110,-92
-108,-91
-103,-91
-102,-93
-105,-95
-117,-94
-128,-89
-128,-95
-106,-88
-86,-85
-71,-84
-63,-80
-63,-76
-60,-79
-56,-74
-60,-72
-64,-70
-71,-69
-69,-71
-72,-80
-71,-84
-76,-86
-76,-90
-77,-96
-80,-95
-85,-99
-88,-104
-88,-104
-93,-99
-92,-106
-95,-108
-100,-101
-105,-105
-106,-102
-107,-101
-107,-94
-110,-96
-106,-99
-107,-101
-106,-99
-105,-101
-101,-102
-103,-102
-107,-103
-103,-96
-106,-96
-107,-98
-99,-95
-97,-94
-101,-98
-95,-94
-96,-95
-96,-97
-92,-94
-89,-96
-82,-90
-76,-90
-61,-92
-44,-92
-16,-96
25,-96
71,-95
114,-92
150,-89
172,-88
183,-114
184,-204
177,-332
159,-460
137,-588
119,-662
114,-698
109,-706
113,-710
118,-716
114,-719
97,-724
77,-711
57,-681
53,-649
63,-617
79,-591
85,-575
64,-545
23,-490
-23,-423
-54,-357
-71,-291
-79,-239
-82,-201
-87,-171
-98,-131
-109,-93
-108,-53
-102,-26
-103,-15
-104,-8
-103,-12
-104,-9
-106,-12
-105,-8
-105,1
-105,0
-104,1
-104,2
-102,5
-104,9
-107,7
-105,9
-109,11
-109,13
-106,14
-106,19
-110,23
-106,26
-109,19
-114,26
-115,26
-115,33
-114,37
-117,36
-116,40
-116,47
-118,47
-122,51
-123,53
-127,61
-123,61
-127,73
-125,73
-126,79
-124,84
-126,84
-128,94
-127,95
-133,100
-136,107
-137,110
-134,120
-132,123
-130,127
-133,137
-136,138
-135,143
-135,141
-140,145
-134,154
-135,154
-131,155
-128,157
-125,156
-119,160
-120,160
-123,162
-120,154
-117,158
-114,150
-108,147
-106,139
-104,131
-101,126
-100,115
-101,105
-98,94
-95,90
-91,72
-89,64
-86,53
-84,40
-85,28
-89,18
-91,5
-91,-3
-90,-11
-88,-20
-89,-28
-86,-37
-87,-41
-90,-48
-90,-51
-92,-54
-92,-54
-95,-57
-97,-61
-98,-64
-98,-62
-99,-61
-95,-63
-101,-61
-103,-63
-101,-61
-103,-64
-104,-59
-103,-62
-101,-60
-100,-61
-103,-61
-102,-63
-105,-63
-108,-54
-102,-55
-103,-56
-105,-60
-103,-60
-98,-63
-99,-63
-100,-61
-101,-66
-103,-67
-99,-61
-98,-68
-99,-66
-95,-68
-94,-69
-97,-69
-96,-72
-98,-72
-97,-76
-94,-73
-96,-72
-93,-71
-89,-79
-94,-78
-89,-80
-87,-76
-92,-81
-94,-81
-91,-78
-89,-76
-84,-73
-77,-81
-69,-81
-68,-80
-67,-78
-63,-80
-56,-75
-56,-75
-54,-70
-51,-68
-46,-63
-42,-62
-35,-58
-36,-56
-34,-55
-40,-54
-46,-58
-51,-55
-51,-62
-49,-66
-52,-69
-55,-78
-58,-79
-57,-75
-64,-80
-68,-84
-70,-88
-70,-86
-72,-89
-70,-92
-79,-89
-84,-92
-86,-94
-84,-90
-88,-82
-87,-75
-87,-80
-83,-79
-83,-85
-80,-88
-80,-85
-88,-83
-85,-83
-83,-84
-84,-79
-85,-80
-83,-83
-80,-84
-78,-84
-77,-86
-79,-85
-77,-83
-75,-84
-72,-80
-65,-78
-56,-84
-37,-80
-12,-82
25,-82
69,-87
115,-85
154,-75
179,-77
187,-98
187,-170
181,-298
166,-426
144,-554
125,-638
120,-671
114,-689
114,-690
123,-691
124,-695
111,-694
99,-688
84,-668
72,-640
73,-612
95,-591
108,-567
102,-549
69,-513
22,-457
-19,-384
-39,-308
-47,-250
-54,-211
-59,-171
-66,-139
-78,-97
-83,-56
-84,-25
-84,-5
-82,3
-78,10
-81,7
-77,6
-84,11
-82,11
-85,17
-82,15
-81,19
-76,19
-79,20
-82,21
-84,24
-85,25
-89,29
-91,32
-88,34
-89,36
-86,39
-88,39
-89,39
-93,41
-98,48
-99,48
-99,50
-101,52
-102,58
-102,64
-103,68
-104,69
-105,74
-111,80
-111,76
-112,86
-116,93
-112,96
-113,102
-112,107
-112,112
-112,119
-116,121
-115,125
-116,130
-118,137
-121,143
-115,143
-118,150
-118,155
-121,155
-118,162
-120,165
-119,165
-116,167
-113,173
-109,170
-107,175
-102,170
-104,170
-99,166
-99,168
-97,162
-95,161
-93,153
-84,149
-80,136
-81,124
-76,113
-77,107
-71,95
-72,86
-70,71
-65,64
-62,49
-61,38
-62,27
-62,20
-60,8
-61,-1
-63,-11
-58,-14
-61,-23
-64,-28
-65,-38
-64,-43
-68,-52
-70,-54
-73,-56
-76,-55
-75,-58
-78,-54
-75,-52
-71,-56
-72,-55
-76,-58
-79,-58
-82,-56
-80,-52
-79,-54
-81,-56
-77,-59
-80,-55
-79,-52
-77,-55
-78,-53
-86,-59
-88,-51
-86,-52
-85,-56
-84,-55
-81,-56
-83,-54
-76,-54
-79,-64
-81,-60
-81,-59
-77,-57
-77,-65
-77,-62
-75,-66
-70,-67
-72,-66
-73,-68
-76,-69
-78,-71
-79,-72
-80,-71
-77,-73
-74,-72
-74,-76
-73,-79
-72,-74
-76,-78
-79,-77
-76,-76
-76,-78
-68,-80
-63,-76
-58,-81
-56,-80
-51,-80
-50,-78
-46,-77
-47,-75
-43,-69
-36,-66
-33,-70
-27,-62
-26,-57
-23,-56
-24,-60
-32,-54
-37,-58
-42,-58
-43,-60
-50,-63
-53,-72
-56,-76
-52,-74
-55,-81
-61,-81
-63,-82
-64,-84
-69,-92
-72,-91
-79,-91
-80,-92
-83,-89
-87,-86
-89,-83
-88,-83
-86,-82
-86,-85
-81,-88
-78,-86
-77,-87
-75,-89
-69,-86
-63,-82
-63,-85
-60,-86
-64,-82
-67,-88
-69,-88
-67,-83
-70,-90
-75,-90
-74,-87
-74,-87
-70,-83
-59,-84
-50,-84
-30,-86
-8,-81
33,-85
85,-84
135,-84
171,-77
187,-75
192,-99
191,-183
178,-311
163,-439
141,-567
129,-648
122,-675
123,-685
126,-694
127,-697
125,-705
119,-700
104,-699
83,-682
76,-654
78,-626
102,-607
112,-587
101,-560
65,-522
13,-456
-27,-380
-48,-309
-56,-249
-61,-203
-66,-172
-80,-136
-92,-96
-92,-58
-91,-24
-90,-5
-91,2
-89,5
-90,4
-93,3
-89,7
-94,13
-92,15
-95,16
-95,19
-93,19
-89,23
-90,24
-96,27
-96,31
-94,32
-100,38
-100,37
-99,41
-99,46
-102,45
-102,43
-104,46
-104,55
-105,62
-108,63
-104,65
-109,63
-105,68
-105,78
-111,75
-111,81
-113,85
-113,91
-115,98
-118,103
-119,110
-122,112
-120,118
-122,121
-121,130
-120,130
-120,135
-125,144
-121,147
-119,153
-116,156
-117,158
-115,162
-112,168
-119,171
-121,174
-118,176
-120,181
-116,180
-110,179
-113,183
-111,179
-108,181
-107,177
-107,177
-102,174
-94,169
-90,162
-85,156
-84,147
-77,135
-79,128
-76,117
-77,107
-78,95
-75,81
-68,70
-67,56
-64,40
-66,30
-67,20
-74,9
-70,-4
-69,-13
-69,-16
-70,-27
-70,-34
-73,-43
-68,-47
-73,-51
-69,-50
-72,-51
-68,-54
-67,-57
-65,-53
-67,-58
-68,-56
-71,-63
-75,-59
-80,-59
-92,-59
-102,-54
-104,-55
-100,-53
-96,-51
-92,-52
-95,-53
-92,-50
-90,-47
-92,-51
-90,-53
-96,-55
-84,-54
-76,-51
-75,-54
-70,-53
-72,-64
-73,-56
-68,-56
-54,-56
-42,-58
-38,-56
-51,-57
-78,-65
-104,-71
-111,-75
-110,-75
-108,-72
-108,-69
-102,-64
-97,-61
-93,-64
-88,-69
-82,-72
-80,-76
-79,-78
-82,-73
-83,-78
-85,-78
-79,-78
-78,-73
-70,-78
-64,-77
-61,-79
-56,-78
-56,-79
-49,-76
-39,-75
-26,-70
-18,-68
-23,-59
-38,-59
-32,-60
-21,-55
-13,-50
-21,-55
-44,-58
-76,-63
-90,-63
-89,-66
-80,-80
-76,-86
-71,-83
-76,-79
-79,-81
-79,-85
-75,-89
-78,-87
-86,-92
-84,-89
-91,-90
-92,-91
-96,-89
-98,-83
-99,-81
-94,-85
-89,-86
-85,-87
-86,-88
-93,-89
-95,-91
-97,-88
-97,-84
-92,-80
-94,-81
-108,-84
-111,-84
-103,-85
-102,-86
-99,-85
-94,-86
-96,-87
-92,-88
-89,-87
-84,-88
-73,-86
-58,-91
-27,-89
14,-88
69,-90
124,-84
161,-82
179,-75
185,-92
178,-183
168,-311
154,-439
136,-567
118,-648
110,-679
105,-687
105,-694
112,-697
107,-702
96,-700
80,-698
62,-684
51,-659
60,-628
79,-613
92,-599
74,-572
35,-533
-15,-464
-55,-387
-74,-311
-78,-252
-85,-207
-92,-169
-106,-136
-115,-92
-115,-55
-113,-23
-112,-3
-116,4
-119,4
-124,3
-128,7
-126,7
-124,13
-124,16
-120,21
-120,21
-120,22
-117,23
-120,20
-123,25
-125,35
-127,36
-128,34
-128,37
-127,38
-128,41
-128,45
-130,49
-132,45
-138,49
-137,57
-142,60
-140,65
-142,67
-140,68
-143,78
-143,78
-148,86
-151,88
-153,93
-151,101
-151,107
-148,114
-151,113
-151,122
-152,131
-153,132
-156,139
-159,150
-153,153
-153,162
-152,166
-154,166
-151,172
-153,177
-152,176
-150,181
-152,189
-149,192
-147,190
-144,194
-142,193
-144,195
-137,194
-138,192
-138,191
-132,190
-128,184
-127,182
-120,172
-118,166
-117,157
-116,147
-113,136
-114,130
-111,116
-105,105
-104,90
-102,79
-100,65
-97,53
-101,41
-101,29
-102,20
-100,13
-103,3
-99,-9
-99,-18
-102,-26
-100,-28
-102,-38
-103,-39
-106,-42
-106,-43
-108,-44
-111,-44
-113,-47
-109,-53
-111,-48
-111,-46
-115,-44
-114,-46
-114,-44
-117,-43
-116,-43
-115,-44
-117,-44
-115,-44
-114,-45
-121,-45
-122,-44
-123,-42
-122,-44
-120,-45
-119,-47
-122,-48
-118,-47
-118,-45
-119,-50
-124,-52
-121,-48
-119,-50
-119,-49
-116,-51
-112,-56
-114,-54
-115,-55
-118,-57
-117,-60
-117,-60
-117,-60
-116,-61
-115,-62
-113,-62
-112,-62
-112,-64
-113,-65
-113,-65
-113,-63
-118,-62
-114,-64
-111,-66
-115,-71
-111,-75
-109,-70
-108,-69
-105,-73
-99,-69
-96,-70
-93,-69
-85,-67
-78,-64
-79,-62
-80,-63
-75,-58
-77,-55
-74,-52
-73,-50
-76,-46
-76,-51
-78,-51
-84,-50
-87,-59
-90,-62
-96,-64
-103,-67
-105,-71
-103,-72
-105,-75
-107,-81
-115,-90
-114,-88
-122,-91
-128,-90
-131,-88
-133,-89
-137,-88
-135,-84
-133,-83
-135,-84
-137,-89
-136,-87
-135,-86
-137,-89
-134,-87
-137,-87
-134,-88
-131,-86
-130,-86
-134,-88
-131,-89
-132,-85
-136,-85
-134,-90
-132,-87
-126,-82
-122,-82
-122,-83
-119,-84
-105,-88
-88,-93
-52,-85
-7,-89
53,-89
104,-84
133,-79
140,-77
138,-121
130,-231
108,-359
87,-487
69,-615
58,-664
55,-683
59,-686
62,-696
67,-696
59,-705
40,-705
16,-702
1,-684
7,-656
28,-629
48,-611
51,-596
17,-565
-31,-505
-76,-422
-105,-343
-115,-271
-119,-218
-121,-184
-132,-148
-138,-117
-149,-69
-154,-30
-151,-7
-151,8
-154,13
-157,11
-155,8
-150,15
-152,17
-148,20
-147,18
-148,21
-147,27
-150,26
-154,31
-155,36
-153,35
-152,40
-153,39
-154,38
-158,43
-158,47
-161,45
-166,47
-166,56
-170,54
-163,62
-165,68
-166,67
-169,70
-170,75
-174,80
-176,85
-179,92
-180,94
-180,98
-178,104
-179,107
-181,112
-180,121
-181,126
-185,133
-186,139
-187,140
-182,149
-183,153
-179,159
-178,164
-179,166
-181,170
-182,177
-180,179
-181,193
-178,193
-174,191
-171,196
-172,196
-168,197
-170,200
-173,201
-171,198
-166,203
-158,202
-154,196
-149,192
-149,180
-150,174
-149,169
-148,161
-150,150
-144,139
-137,127
-136,117
-133,105
-133,96
-135,76
-141,67
-136,54
-137,43
-132,33
-134,22
-129,11
-132,3
-137,-8
-136,-8
-141,-17
-140,-23
-141,-29
-143,-31
-140,-33
-138,-38
-141,-42
-142,-39
-144,-43
-149,-40
-149,-39
-149,-40
-148,-38
-153,-37
-154,-40
-150,-35
-151,-40
-150,-38
-156,-34
-157,-35
-154,-35
-154,-39
-155,-36
-150,-35
-150,-34
-150,-35
-147,-41
-152,-37
-150,-41
-149,-38
-153,-37
-146,-40
-143,-44
-144,-39
-145,-42
-144,-46
-143,-43
-152,-46
-148,-44
-148,-50
-142,-51
-135,-50
-131,-51
-125,-52
-131,-53
-134,-57
-145,-59
-144,-64
-142,-58
-141,-56
-138,-56
-137,-60
-137,-63
-138,-57
-137,-62
-140,-60
-136,-61
-135,-61
-127,-62
-120,-65
-119,-64
-112,-64
-111,-67
-110,-61
-109,-61
-106,-55
-101,-53
-98,-48
-94,-48
-86,-43
-89,-43
-95,-44
-100,-46
-101,-43
-108,-48
-109,-51
-110,-59
-112,-64
-115,-66
-114,-72
-116,-70
-120,-75
-126,-76
-126,-78
-134,-80
-135,-82
-137,-78
-142,-78
-139,-79
-140,-77
-141,-75
-145,-74
-148,-71
-146,-71
-147,-76
-141,-78
-144,-79
-143,-78
-144,-77
-141,-79
-144,-80
-147,-77
-145,-77
-145,-79
-143,-74
-137,-79
-139,-79
-140,-82
-141,-84
-135,-84
-129,-84
-120,-82
-101,-86
-69,-82
-22,-86
37,-87
88,-80
123,-73
145,-73
151,-108
147,-205
128,-333
107,-461
84,-589
69,-660
60,-684
62,-696
61,-699
60,-707
49,-706
31,-708
7,-706
-12,-686
-7,-656
16,-630
35,-611
38,-589
6,-560
-43,-494
-90,-421
-118,-337
-127,-269
-121,-224
-127,-187
-137,-152
-152,-115
-162,-72
-162,-30
-161,-5
-159,6
-159,5
-158,6
-153,0
-154,3
-156,4
-160,10
-162,12
-162,20
-163,21
-159,22
-158,23
-157,21
-156,25
-156,29
-164,33
-166,35
-164,35
-165,38
-168,42
-163,47
-165,49
-165,52
-170,50
-173,56
-174,60
-175,65
-173,70
-174,71
-177,76
-175,73
-177,82
-177,88
-180,86
-183,94
-189,97
-186,105
-183,113
-187,116
-188,120
-184,128
-184,129
-190,136
-188,142
-188,148
-189,159
-187,161
-181,164
-181,169
-180,168
-182,175
-183,176
-185,181
-183,183
-177,184
-171,187
-170,187
-169,188
-167,188
-166,183
-164,186
-162,185
-162,179
-158,173
-155,163
-150,158
-144,148
-136,137
-135,129
-134,117
-128,106
-132,96
-128,84
-122,71
-123,57
-121,46
-121,35
-118,20
-122,9
-120,3
-123,-2
-119,-10
-121,-18
-118,-27
-114,-33
-116,-38
-119,-39
-120,-37
-123,-40
-124,-45
-124,-39
-124,-38
-123,-38
-121,-39
-119,-39
-124,-38
-130,-43
-129,-40
-130,-38
-128,-41
-124,-37
-125,-34
-124,-37
-126,-37
-122,-35
-126,-34
-130,-39
-128,-36
-126,-30
-125,-36
-121,-40
-118,-35
-123,-42
-122,-41
-123,-41
-120,-41
-121,-42
-120,-46
-120,-44
-120,-49
-114,-53
-112,-53
-119,-53
-119,-55
-121,-52
-118,-48
-122,-54
-113,-58
-114,-59
-116,-59
-115,-56
-111,-58
-116,-56
-115,-57
-116,-61
-112,-60
-111,-62
-102,-57
-97,-62
-89,-61
-91,-64
-88,-59
-84,-56
-82,-56
-74,-51
-74,-45
-69,-46
-64,-43
-64,-43
-67,-39
-72,-44
-77,-43
-82,-41
-82,-42
-85,-44
-86,-56
-85,-61
-85,-61
-92,-67
-96,-69
-100,-65
-102,-66
-104,-71
-109,-74
-112,-76
-116,-72
-123,-77
-122,-78
-120,-68
-126,-71
-125,-68
-125,-67
-124,-69
-120,-65
-118,-72
-118,-71
-122,-74
-120,-72
-123,-70
-125,-69
-123,-72
-116,-69
-119,-67
-115,-68
-116,-72
-118,-70
-121,-74
-119,-73
-118,-71
-115,-70
-105,-73
-91,-71
-66,-72
-28,-76
26,-77
85,-78
132,-72
161,-67
170,-76
170,-145
158,-273
140,-401
113,-529
94,-638
83,-677
81,-687
84,-697
88,-704
85,-707
71,-708
49,-702
34,-693
27,-665
51,-634
70,-616
81,-597
62,-566
12,-517
-42,-441
-76,-362
-95,-292
-103,-237
-105,-202
-115,-172
-128,-130
-137,-89
-139,-46
-138,-14
-137,2
-135,9
-134,5
-135,5
-139,7
-140,10
-136,17
-137,22
-138,21
-135,21
-128,22
-132,26
-133,28
-133,32
-141,33
-141,35
-140,33
-139,39
-139,43
-138,45
-137,46
-142,51
-146,55
-144,55
-149,61
-147,59
-149,63
-153,70
-156,72
-157,75
-155,78
-159,85
-159,86
-162,94
-164,101
-165,104
-160,111
-159,115
-163,122
-159,123
-165,129
-165,140
-163,142
-166,148
-163,156
-163,160
-163,166
-159,172
-161,175
-159,176
-164,181
-161,180
-164,189
-160,190
-155,191
-152,191
-150,192
-146,189
-146,188
-147,189
-144,188
-147,190
-139,183
-134,176
-124,165
-122,157
-121,144
-120,134
-118,127
-120,114
-114,105
-113,94
-116,80
-108,68
-112,56
-105,42
-110,25
-110,14
-108,5
-108,1
-107,-4
-107,-19
-106,-23
-105,-31
-106,-38
-108,-41
-108,-38
-112,-41
-111,-41
-106,-47
-108,-44
-108,-41
-108,-43
-101,-45
-107,-48
-114,-36
-117,-42
-116,-37
-116,-33
-115,-37
-110,-38
-107,-39
-110,-42
-109,-39
-112,-37
-116,-38
-115,-40
-112,-46
-111,-49
-107,-52
-105,-49
-105,-47
-106,-42
-108,-43
-104,-41
-107,-40
-106,-44
-109,-45
-103,-46
-99,-49
-99,-51
-99,-49
-103,-54
-101,-51
-102,-52
-101,-51
-97,-54
-92,-58
-90,-56
-96,-58
-96,-58
-96,-60
-101,-63
-98,-63
-95,-58
-91,-56
-84,-60
-73,-61
-70,-58
-70,-66
-64,-61
-64,-55
-62,-54
-60,-52
-55,-50
-52,-45
-47,-46
-44,-45
-44,-40
-52,-39
-56,-41
-60,-43
-63,-40
-67,-50
-72,-58
-68,-61
-66,-64
-71,-71
-76,-72
-84,-71
-86,-76
-88,-71
-93,-76
-95,-78
-96,-75
-97,-76
-100,-78
-101,-69
-103,-71
-105,-73
-104,-71
-103,-68
-102,-68
-100,-74
-93,-72
-96,-77
-100,-79
-97,-76
-96,-72
-100,-71
-100,-74
-97,-74
-96,-74
-95,-76
-93,-75
-90,-73
-96,-76
-91,-75
-84,-71
-75,-70
-50,-73
-20,-74
33,-78
90,-75
141,-73
172,-67
181,-60
187,-117
180,-227
165,-355
142,-483
126,-611
108,-673
106,-692
101,-699
102,-706
102,-714
92,-719
75,-715
54,-710
41,-694
45,-670
62,-641
88,-624
96,-607
69,-575
22,-519
-32,-443
-64,-351
-75,-283
-73,-231
-80,-193
-91,-152
-105,-113
-116,-68
-120,-29
-119,-5
-116,11
-112,16
-116,16
-111,12
-113,20
-115,22
-115,21
-117,24
-114,26
-117,28
-111,30
-110,34
-109,34
-111,38
-113,35
-117,40
-119,43
-117,48
-121,52
-121,53
-119,52
-120,55
-120,59
-121,58
-125,63
-126,66
-127,70
-128,74
-133,78
-128,82
-130,89
-130,94
-135,92
-135,98
-136,107
-139,112
-141,118
-139,121
-138,133
-138,135
-136,139
-139,147
-139,152
-141,158
-145,166
-142,170
-138,177
-137,180
-134,186
-139,189
-138,190
-135,193
-139,200
-138,200
-138,202
-132,200
-130,203
-129,201
-127,199
-125,201
-120,193
-122,194
-118,189
-113,181
-108,175
-107,165
-103,153
-96,145
-93,130
-94,120
-93,106
-94,94
-91,79
-89,67
-87,54
-86,41
-85,25
-89,11
-90,3
-92,-8
-89,-18
-90,-21
-90,-27
-87,-36
-84,-40
-88,-47
-87,-48
-88,-49
-94,-51
-97,-56
-96,-56
-93,-52
-90,-52
-95,-51
-95,-50
-97,-51
-99,-50
-99,-47
-96,-44
-99,-46
-99,-45
-95,-46
-96,-45
-98,-46
-94,-52
-96,-47
-98,-48
-99,-45
-97,-49
-102,-47
-94,-45
-92,-43
-91,-51
-86,-51
-89,-53
-97,-53
-95,-51
-92,-52
-92,-55
-89,-56
-86,-60
-80,-57
-85,-60
-85,-61
-84,-61
-89,-64
-92,-66
-88,-61
-85,-62
-87,-62
-86,-67
-82,-64
-84,-66
-86,-66
-88,-64
-85,-63
-80,-66
-79,-66
-76,-64
-70,-68
-63,-69
-65,-71
-61,-69
-62,-64
-54,-63
-52,-59
-48,-57
-41,-56
-40,-48
-39,-48
-36,-46
-29,-42
-37,-41
-44,-36
-44,-40
-49,-46
-52,-48
-59,-56
-58,-61
-64,-64
-67,-71
-70,-72
-69,-75
-74,-77
-72,-79
-78,-79
-78,-90
-83,-85
-91,-82
-94,-83
-96,-79
-95,-77
-95,-73
-97,-76
-94,-78
-92,-81
-94,-84
-94,-80
-95,-80
-98,-81
-98,-80
-97,-81
-94,-77
-94,-74
-88,-75
-89,-74
-88,-76
-89,-81
-90,-80
-92,-77
-90,-75
-85,-73
-77,-75
-66,-78
-45,-78
-17,-82
23,-79
78,-83
122,-79
153,-72
164,-74
167,-106
160,-211
146,-339
124,-467
101,-595
87,-677
78,-702
85,-711
83,-722
91,-724
90,-733
76,-727
58,-723
38,-706
39,-682
60,-658
81,-642
95,-626
72,-590
30,-536
-18,-460
-50,-372
-62,-296
-67,-245
-66,-197
-82,-165
-92,-124
-105,-83
-108,-40
-106,-9
-101,2
-99,10
-102,10
-103,7
-104,11
-107,15
-103,16
-103,20
-102,23
-99,24
-102,25
-105,28
-106,32
-107,30
-109,34
-112,40
-112,39
-107,43
-109,43
-111,47
-112,47
-113,53
-118,57
-117,57
-118,59
-120,67
-121,73
-117,76
-123,79
-127,82
-127,89
-128,90
-131,97
-132,99
-133,107
-133,112
-134,119
-134,121
-133,128
-141,127
-138,138
-137,147
-138,149
-134,160
-133,162
-131,168
-131,172
-135,174
-132,179
-138,183
-137,190
-137,189
-135,195
-131,194
-123,198
-124,200
-124,203
-125,197
-124,202
-122,201
-119,196
-114,194
-109,188
-105,182
-104,172
-98,163
-95,147
-95,139
-99,129
-91,112
-90,98
-88,90
-84,75
-88,61
-85,45
-87,33
-90,21
-91,8
-88,-3
-87,-15
-85,-16
-86,-27
-86,-36
-89,-44
-90,-47
-89,-51
-92,-54
-92,-47
-94,-52
-94,-55
-92,-54
-93,-57
-97,-57
-97,-58
-102,-56
-105,-52
-102,-55
-105,-54
-102,-50
-100,-51
-99,-54
-102,-50
-102,-53
-101,-48
-105,-51
-101,-50
-103,-52
-104,-52
-102,-51
-99,-57
-101,-57
-103,-55
-103,-55
-103,-54
-104,-58
-103,-56
-99,-59
-98,-59
-93,-62
-91,-64
-96,-61
-95,-66
-102,-66
-98,-64
-99,-71
-101,-64
-100,-70
-96,-71
-96,-71
-96,-73
-93,-75
-95,-72
-98,-72
-97,-74
-99,-73
-93,-75
-93,-77
-94,-76
-92,-77
-87,-76
-85,-75
-77,-74
-76,-72
-69,-73
-67,-72
-59,-67
-58,-66
-54,-65
-53,-64
-50,-58
-48,-55
-44,-51
-47,-47
-50,-52
-50,-48
-51,-52
-56,-55
-63,-61
-64,-67
-68,-69
-69,-71
-74,-70
-77,-78
-75,-79
-75,-87
-81,-89
-91,-90
-92,-89
-96,-86
-102,-83
-100,-83
-102,-79
-100,-80
-96,-82
-99,-85
-99,-84
-100,-85
-100,-83
-103,-80
-103,-81
-99,-78
-99,-80
-97,-84
-98,-83
-98,-83
-101,-85
-101,-85
-101,-84
-100,-82
-99,-79
-97,-80
-88,-80
-87,-79
-78,-83
-66,-85
-42,-83
-5,-82
48,-85
100,-79
133,-71
155,-74
161,-90
157,-180
141,-308
125,-436
102,-564
85,-680
74,-719
72,-729
73,-737
83,-738
81,-743
67,-747
53,-747
35,-737
24,-712
35,-687
64,-666
80,-649
72,-629
37,-582
-11,-514
-50,-420
-72,-338
-82,-269
-84,-218
-87,-178
-96,-142
-106,-98
-113,-56
-110,-16
-112,6
-114,16
-115,17
-116,12
-116,17
-115,19
-117,25
-112,26
-113,27
-113,30
-115,32
-117,33
-116,37
-116,42
-116,42
-112,47
-117,45
-116,46
-119,48
-118,54
-121,55
-124,58
-129,62
-124,65
-125,70
-126,70
-129,71
-128,75
-133,77
-134,86
-135,88
-139,95
-140,99
-143,107
-136,111
-136,113
-141,117
-143,122
-146,126
-153,133
-146,141
-147,148
-149,157
-142,161
-141,170
-147,172
-148,181
-147,188
-148,190
-146,196
-142,198
-144,203
-140,207
-141,207
-140,210
-138,212
-141,214
-138,213
-136,214
-138,215
-130,210
-128,205
-126,202
-123,193
-121,186
-117,178
-116,168
-112,159
-110,148
-107,135
-102,117
-106,103
-101,91
-101,78
-100,59
-104,47
-103,34
-102,20
-101,9
-97,-2
-96,-10
-97,-18
-102,-29
-100,-35
-108,-41
-107,-40
-103,-43
-104,-44
-103,-52
-103,-55
-105,-55
-109,-54
-106,-51
-110,-53
-112,-51
-113,-53
-115,-54
-109,-50
-108,-51
-112,-53
-113,-51
-113,-50
-116,-46
-116,-47
-116,-51
-116,-44
-117,-49
-112,-44
-114,-46
-117,-45
-115,-50
-115,-48
-116,-46
-116,-52
-118,-51
-111,-53
-110,-53
-108,-56
-110,-55
-114,-57
-114,-60
-113,-57
-112,-59
-110,-59
-112,-61
-107,-64
-111,-64
-111,-67
-111,-68
-112,-68
-110,-73
-110,-66
-110,-69
-108,-71
-105,-72
-111,-72
-108,-74
-107,-72
-108,-75
-111,-76
-109,-76
-107,-79
-105,-77
-100,-71
-93,-77
-93,-74
-86,-77
-85,-75
-82,-69
-85,-66
-79,-68
-74,-61
-68,-57
-65,-56
-61,-53
-64,-50
-65,-44
-70,-50
-76,-47
-79,-46
-78,-51
-80,-59
-83,-66
-84,-68
-91,-73
-91,-77
-93,-81
-96,-83
-101,-81
-107,-84
-106,-87
-110,-86
-112,-85
-115,-86
-118,-79
-117,-75
-119,-75
-119,-74
-118,-71
-118,-74
-117,-80
-115,-73
-115,-79
-119,-80
-112,-80
-117,-77
-119,-78
-117,-79
-115,-79
-112,-76
-110,-80
-111,-81
-111,-78
-113,-81
-109,-73
-110,-76
-105,-74
-98,-76
-82,-75
-58,-81
-23,-84
18,-84
60,-87
89,-78
103,-74
108,-91
105,-175
96,-303
77,-431
55,-559
39,-687
32,-719
30,-733
33,-734
38,-744
43,-753
34,-752
24,-751
8,-740
-3,-716
12,-691
33,-671
49,-654
35,-632
4,-584
-44,-511
-77,-425
-92,-334
-96,-269
-99,-221
-106,-179
-118,-138
-128,-98
-138,-52
-134,-14
-130,7
-130,17
-128,12
-128,14
-130,15
-132,19
-128,23
-132,25
-135,27
-129,31
-132,36
-130,35
-128,34
-129,35
-130,35
-134,39
-137,49
-137,49
-137,50
-133,56
-133,56
-136,55
-138,57
-145,66
-146,69
-144,73
-144,80
-146,79
-143,83
-143,89
-145,92
-148,97
-149,102
-152,109
-155,114
-155,122
-155,127
-156,137
-163,138
-158,140
-157,149
-157,156
-160,163
-163,170
-162,177
-162,179
-157,179
-158,190
-156,193
-154,197
-158,198
-158,208
-158,211
-158,215
-154,218
-154,216
-155,218
-153,220
-151,217
-148,218
-150,215
-150,215
-145,209
-139,204
-135,194
-131,187
-128,171
-128,165
-128,150
-125,135
-123,119
-123,110
-122,98
-117,77
-115,67
-114,54
-114,36
-117,21
-120,11
-121,0
-119,-11
-117,-21
-119,-29
-117,-41
-116,-40
-119,-50
-119,-50
-120,-55
-124,-55
-123,-60
-123,-63
-122,-58
-119,-60
-123,-59
-123,-63
-128,-60
-126,-62
-132,-56
-131,-57
-132,-58
-129,-54
-131,-56
-128,-55
-127,-57
-129,-54
-133,-50
-134,-54
-134,-54
-136,-52
-132,-56
-131,-55
-130,-59
-131,-62
-132,-66
-136,-59
-137,-60
-137,-61
-131,-63
-135,-62
-132,-59
-134,-63
-133,-64
-131,-65
-133,-70
-133,-73
-134,-70
-135,-75
-132,-75
-136,-71
-134,-77
-128,-76
-130,-77
-129,-78
-130,-79
-131,-76
-131,-74
-128,-74
-124,-79
-124,-75
-125,-81
-122,-77
-126,-80
-122,-78
-121,-83
-122,-78
-115,-79
-106,-80
-100,-79
-95,-84
-98,-80
-91,-76
-89,-68
-90,-66
-86,-62
-82,-63
-77,-59
-76,-57
-79,-54
-86,-56
-83,-55
-88,-58
-94,-62
-93,-69
-96,-72
-94,-76
-94,-77
-97,-86
-98,-92
-96,-89
-100,-88
-108,-99
-110,-92
-115,-94
-113,-93
-114,-95
-117,-93
-115,-90
-116,-88
-116,-92
-114,-87
-116,-88
-116,-94
-119,-88
-116,-88
-116,-87
-112,-87
-113,-91
-115,-90
-115,-88
-114,-89
-113,-84
-112,-84
-110,-84
-109,-87
-106,-84
-104,-78
-108,-80
-103,-83
-96,-86
-86,-85
-69,-87
-34,-90
7,-88
46,-86
74,-76
91,-78
92,-128
92,-256
85,-384
68,-512
49,-640
42,-712
36,-730
40,-738
40,-747
47,-748
43,-751
29,-755
15,-751
0,-732
1,-708
23,-688
48,-665
50,-645
32,-609
-11,-539
-55,-451
-81,-354
-89,-285
-90,-229
-91,-188
-103,-147
-115,-104
-125,-58
-128,-16
-135,7
-134,16
-135,19
-132,17
-133,18
-132,18
-137,23
-137,23
-137,28
-137,29
-137,31
-138,34
-137,34
-134,36
-134,40
-138,40
-139,43
-144,47
-144,51
-148,52
-141,58
-143,63
-143,62
-143,67
-142,66
-144,70
-147,75
-149,83
-149,84
-153,91
-150,94
-151,100
-149,104
-150,108
-152,113
-158,120
-155,122
-158,132
-155,138
-155,144
-151,149
-153,159
-153,163
-154,173
-156,178
-157,182
-156,189
-155,194
-155,199
-152,205
-151,209
-146,211
-151,213
-149,216
-151,220
-146,223
-147,227
-143,224
-144,228
-139,228
-142,222
-138,220
-136,214
-134,210
-128,200
-125,194
-125,185
-121,171
-118,160
-119,143
-112,130
-117,116
-118,102
-115,90
-114,76
-113,60
-110,41
-110,33
-108,13
-110,4
-114,-4
-116,-16
-114,-23
-115,-39
-117,-38
-120,-44
-119,-48
-118,-55
-123,-56
-122,-56
-120,-58
-125,-54
-128,-59
-126,-61
-130,-57
-128,-54
-124,-53
-125,-52
-128,-50
-131,-52
-134,-48
-131,-52
-132,-52
-133,-46
-131,-54
-130,-50
-129,-52
-135,-51
-132,-48
-132,-50
-132,-46
-132,-46
-133,-48
-130,-54
-128,-59
-130,-54
-126,-55
-128,-57
-130,-53
-132,-56
-128,-60
-126,-57
-122,-60
-124,-66
-127,-60
-125,-68
-125,-63
-125,-67
-125,-68
-126,-64
-127,-69
-122,-69
-123,-71
-117,-72
-123,-71
-124,-71
-122,-69
-121,-74
-123,-71
-122,-74
-123,-72
-121,-76
-123,-76
-123,-78
-118,-76
-119,-75
-115,-75
-111,-76
-105,-72
-101,-74
-96,-74
-95,-69
-92,-69
-86,-68
-87,-62
-86,-59
-83,-56
-78,-53
-76,-49
-77,-54
-79,-52
-83,-53
-87,-53
-92,-60
-95,-67
-96,-69
-98,-79
-102,-78
-101,-82
-104,-89
-108,-95
-111,-91
-116,-96
-119,-96
-124,-98
-126,-96
-124,-93
-122,-88
-123,-90
-123,-88
-128,-91
-128,-89
-131,-95
-131,-88
-129,-88
-127,-85
-124,-89
-122,-90
-125,-86
-125,-86
-126,-88
-124,-85
-123,-84
-124,-84
-120,-85
-118,-81
-118,-85
-114,-88
-112,-87
-104,-84
-95,-83
-69,-81
-39,-83
7,-85
51,-87
85,-82
100,-77
103,-98
100,-194
86,-322
68,-450
48,-578
32,-699
24,-728
29,-739
33,-742
36,-745
28,-751
12,-753
-4,-753
-22,-740
-21,-716
0,-692
24,-670
38,-655
26,-625
-14,-565
-58,-483
-84,-388
-96,-307
-95,-241
-92,-202
-99,-161
-108,-122
-117,-77
-123,-33
-120,4
-119,23
-122,29
-122,30
-119,23
-116,28
-118,24
-113,32
-120,33
-117,40
-118,40
-117,44
-117,50
-120,50
-117,49
-116,52
-119,54
-119,58
-115,59
-119,61
-125,65
-125,69
-125,73
-125,78
-124,76
-126,81
-124,87
-128,87
-130,90
-131,94
-131,103
-130,103
-132,108
-131,115
-131,115
-134,118
-137,126
-138,132
-139,141
-142,147
-139,153
-141,158
-134,163
-140,172
-140,176
-144,182
-144,192
-143,197
-140,200
-141,213
-137,211
-138,216
-133,217
-137,219
-135,222
-139,223
-136,228
-135,232
-134,234
-128,232
-128,227
-123,224
-119,224
-120,217
-121,211
-117,202
-112,196
-111,184
-104,172
-100,162
-103,147
-100,131
-99,121
-100,106
-100,91
-100,78
-92,63
-95,49
-94,35
-92,21
-96,4
-97,-6
-95,-15
-96,-25
-99,-28
-98,-37
-97,-43
-93,-50
-96,-51
-96,-55
-99,-55
-100,-55
-99,-58
-97,-53
-103,-57
-98,-56
-103,-58
-104,-55
-100,-53
-102,-55
-105,-53
-107,-54
-102,-52
-104,-48
-103,-51
-101,-55
-105,-46
-104,-50
-106,-52
-106,-54
-103,-50
-107,-51
-102,-54
-100,-54
-102,-51
-100,-57
-99,-57
-104,-60
-99,-59
-104,-59
-101,-61
-101,-59
-96,-61
-96,-68
-97,-67
-95,-67
-96,-68
-97,-70
-101,-70
-97,-70
-99,-72
-94,-74
-91,-74
-93,-74
-92,-75
-94,-77
-98,-76
-98,-74
-94,-73
-98,-75
-93,-76
-91,-76
-91,-81
-91,-79
-87,-78
-91,-80
-92,-82
-91,-79
-85,-80
-79,-77
-74,-79
-73,-82
-70,-86
-69,-80
-70,-78
-63,-70
-62,-65
-57,-60
-54,-60
-49,-61
-48,-61
-50,-55
-56,-56
-62,-55
-64,-56
-66,-57
-69,-62
-69,-69
-69,-71
-67,-80
-74,-80
-73,-87
-78,-87
-83,-87
-84,-91
-87,-85
-91,-94
-91,-90
-92,-93
-93,-88
-98,-87
-98,-88
-99,-83
-100,-83
-96,-84
-96,-84
-93,-87
-93,-86
-93,-86
-93,-86
-93,-83
-95,-86
-95,-85
-93,-90
-93,-87
-91,-86
-91,-87
-92,-89
-89,-86
-91,-88
-88,-84
-80,-87
-73,-85
-59,-86
-39,-85
-4,-86
35,-91
66,-89
91,-82
106,-75
105,-99
106,-198
97,-326
81,-454
67,-582
55,-695
52,-714
46,-727
51,-735
55,-739
52,-741
42,-742
28,-742
17,-727
16,-709
32,-687
51,-666
59,-647
42,-629
9,-572
-27,-487
-49,-393
-62,-310
-64,-244
-64,-204
-69,-167
-80,-123
-94,-81
-97,-38
-95,1
-95,19
-96,26
-90,26
-91,23
-92,32
-95,29
-97,35
-96,37
-92,38
-87,42
-89,41
-90,45
-89,43
-91,49
-94,50
-95,51
-95,60
-98,58
-95,60
-95,63
-99,66
-97,70
-94,75
-103,77
-102,79
-103,84
-98,86
-101,93
-106,99
-105,102
-104,106
-104,108
-107,111
-112,121
-113,124
-114,133
-114,139
-113,150
-109,151
-111,154
-111,161
-117,168
-115,176
-116,186
-114,196
-113,195
-111,201
-110,208
-110,206
-110,213
-111,218
-114,222
-110,225
-111,231
-108,235
-107,229
-104,231
-102,232
-108,233
-102,234
-100,226
-101,228
-94,220
-90,214
-90,208
-86,193
-84,182
-83,172
-81,159
-79,144
-78,133
-75,116
-76,102
-70,88
-69,76
-73,55
-70,45
-71,29
-74,15
-74,7
-74,3
-75,-8
-72,-17
-72,-28
-71,-30
-76,-36
-75,-43
-79,-40
-79,-43
-78,-46
-80,-43
-81,-45
-75,-51
-75,-49
-77,-49
-80,-47
-80,-44
-85,-40
-85,-46
-79,-40
-82,-42
-83,-43
-84,-47
-80,-42
-83,-44
-87,-45
-84,-42
-83,-41
-85,-44
-82,-43
-83,-44
-83,-45
-81,-42
-83,-44
-86,-48
-83,-46
-83,-50
-83,-49
-82,-52
-79,-57
-80,-55
-75,-56
-77,-59
-79,-60
-84,-58
-81,-62
-80,-61
-76,-60
-75,-65
-75,-65
-78,-66
-77,-65
-77,-68
-78,-68
-79,-64
-78,-66
-75,-68
-76,-72
-74,-70
-73,-71
-76,-70
-77,-67
-79,-69
-77,-68
-75,-68
-74,-72
-72,-74
-72,-71
-68,-74
-66,-76
-64,-72
-62,-73
-57,-67
-54,-68
-54,-65
-53,-62
-43,-62
-43,-61
-43,-57
-40,-55
-39,-50
-43,-42
-44,-48
-45,-45
-48,-49
-51,-50
-51,-59
-53,-62
-57,-66
-57,-70
-61,-74
-64,-73
-61,-74
-64,-77
-66,-80
-68,-84
-75,-90
-76,-88
-87,-89
-83,-83
-84,-81
-85,-76
-81,-77
-81,-77
-83,-83
-84,-83
-82,-82
-81,-84
-80,-80
-82,-80
-78,-80
-79,-76
-78,-82
-78,-80
-77,-77
-77,-79
-81,-80
-79,-82
-78,-78
-76,-82
-74,-84
-69,-77
-63,-82
-57,-80
-41,-83
-20,-80
16,-82
58,-87
92,-81
114,-70
122,-69
122,-111
116,-229
103,-357
85,-485
68,-613
59,-693
58,-711
59,-719
67,-726
70,-731
61,-735
48,-736
34,-733
23,-718
33,-700
56,-672
70,-657
62,-635
37,-599
-3,-533
-35,-444
-52,-352
-52,-276
-53,-221
-59,-181
-66,-142
-75,-97
-79,-51
-79,-18
-79,10
-78,25
-83,24
-80,25
-81,26
-80,31
-81,34
-78,38
-73,39
-78,39
-77,43
-78,45
-80,47
-80,51
-82,53
-79,57
-80,53
-81,57
-81,62
-80,63
-88,68
-89,70
-86,73
-88,79
-86,86
-89,83
-86,87
-88,93
-92,97
-95,99
-97,103
-99,111
-99,113
-96,117
-95,126
-97,128
-100,129
-104,136
-104,147
-105,152
-106,160
-108,165
-104,166
-104,176
-105,178
-106,184
-106,192
-105,198
-108,202
-108,209
-105,210
-105,216
-105,220
-101,225
-101,228
-101,226
-105,230
-102,236
-100,235
-101,238
-92,233
-93,230
-88,227
-87,217
-87,212
-84,206
-83,195
-83,185
-79,176
-75,157
-71,147
-70,132
-68,115
-69,100
-67,87
-69,78
-68,62
-70,53
-68,40
-67,21
-64,8
-66,0
-64,-12
-64,-20
-68,-23
-71,-21
-71,-33
-71,-36
-70,-37
-67,-42
-62,-42
-64,-43
-57,-47
-59,-46
-65,-45
-64,-41
-69,-45
-69,-44
-71,-43
-74,-41
-69,-43
-74,-39
-76,-38
-79,-40
-78,-37
-75,-40
-78,-41
-78,-38
-78,-39
-80,-44
-77,-46
-80,-47
-82,-44
-80,-46
-77,-44
-82,-42
-76,-46
-77,-47
-79,-49
-80,-54
-79,-54
-78,-55
-83,-58
-82,-62
-78,-57
-77,-59
-74,-63
-77,-61
-76,-61
-77,-62
-77,-64
-76,-65
-75,-65
-74,-68
-72,-71
-69,-68
-73,-72
-75,-69
-78,-70
-73,-70
-79,-69
-76,-71
-77,-70
-69,-67
-71,-75
-70,-71
-73,-75
-76,-76
-77,-74
-74,-76
-67,-73
-63,-73
-64,-77
-59,-74
-58,-73
-52,-69
-51,-70
-50,-66
-48,-62
-44,-56
-39,-58
-37,-50
-35,-51
-36,-51
-39,-50
-47,-45
-46,-52
-49,-51
-55,-58
-57,-58
-56,-66
-57,-71
-58,-74
-59,-81
-62,-83
-69,-85
-68,-85
-72,-85
-75,-85
-77,-87
-77,-89
-79,-86
-81,-85
-82,-80
-79,-80
-81,-82
-85,-84
-80,-83
-81,-82
-78,-81
-79,-79
-81,-80
-81,-77
-82,-81
-81,-83
-80,-82
-80,-81
-77,-79
-75,-81
-77,-81
-74,-85
-75,-85
-74,-81
-73,-78
-63,-83
-46,-80
-22,-79
9,-85
52,-84
86,-84
112,-71
118,-69
122,-95
120,-191
110,-319
92,-447
74,-575
69,-683
61,-708
59,-719
64,-728
68,-729
61,-730
49,-729
34,-731
25,-725
30,-705
46,-688
64,-662
61,-652
38,-630
4,-572
-31,-491
-55,-399
-59,-314
-60,-253
-60,-203
-68,-166
-80,-122
-89,-76
-86,-31
-87,6
-84,23
-84,26
-83,27
-81,30
-85,30
-86,26
-84,34
-88,44
-85,46
-82,46
-79,49
-83,53
-80,54
-83,58
-82,60
-85,58
-83,61
-88,62
-88,66
-89,65
-88,70
-86,72
-88,74
-93,77
-94,85
-92,89
-95,90
-97,96
-97,97
-97,102
-97,104
-96,108
-101,116
-101,115
-103,124
-104,133
-104,136
-103,146
-102,150
-107,156
-106,161
-111,163
-107,172
-114,180
-115,188
-112,192
-109,197
-107,204
-107,207
-104,214
-104,218
-109,220
-106,225
-110,226
-107,230
-102,229
-101,230
-101,232
-98,231
-98,226
-97,225
-95,226
-93,221
-87,218
-86,209
-86,204
-83,190
-78,177
-82,167
-78,153
-75,141
-76,130
-73,112
-72,99
-69,80
-70,67
-68,53
-73,39
-73,25
-72,16
-71,6
-71,-6
-68,-12
-72,-20
-70,-26
-68,-26
-68,-32
-72,-34
-74,-39
-77,-40
-73,-40
-72,-40
-75,-45
-73,-40
-71,-37
-75,-38
-77,-39
-77,-40
-79,-33
-79,-33
-78,-32
-79,-38
-78,-37
-78,-39
-82,-37
-84,-37
-80,-35
-80,-33
-78,-35
-79,-33
-76,-37
-79,-39
-79,-42
-83,-40
-80,-36
-83,-42
-83,-43
-80,-45
-77,-42
-78,-47
-81,-49
-79,-51
-80,-54
-81,-56
-82,-55
-79,-54
-79,-54
-77,-56
-77,-59
-78,-64
-78,-64
-80,-63
-78,-62
-79,-63
-82,-64
-79,-62
-77,-64
-71,-63
-78,-66
-79,-69
-79,-70
-81,-69
-81,-67
-84,-69
-79,-72
-79,-66
-77,-68
-76,-73
-77,-71
-74,-70
-78,-70
-77,-69
-70,-68
-66,-73
-64,-68
-60,-68
-57,-69
-54,-64
-55,-63
-50,-56
-53,-60
-48,-50
-44,-49
-42,-45
-39,-43
-44,-44
-46,-47
-50,-43
-55,-46
-59,-55
-60,-54
-60,-61
-62,-66
-61,-72
-61,-77
-64,-82
-70,-79
-76,-80
-79,-81
-80,-85
-84,-81
-87,-82
-84,-84
-85,-79
-89,-79
-89,-77
-87,-77
-90,-76
-96,-75
-95,-77
-88,-75
-89,-83
-86,-80
-87,-78
-87,-75
-85,-79
-90,-82
-86,-77
-89,-72
-83,-76
-83,-75
-84,-77
-83,-77
-84,-78
-79,-76
-75,-79
-58,-74
-35,-77
2,-74
49,-76
93,-74
116,-71
129,-67
131,-91
127,-173
119,-301
105,-429
87,-557
74,-652
70,-685
70,-700
71,-706
77,-709
71,-716
65,-718
42,-719
32,-712
31,-698
48,-676
68,-658
68,-633
45,-611
5,-560
-32,-478
-54,-389
-63,-306
-63,-239
-64,-195
-73,-159
-85,-118
-95,-72
-97,-28
-98,3
-98,19
-100,26
-98,26
-92,25
-93,25
-92,26
-90,34
-95,36
-102,37
-99,45
-96,43
-94,47
-93,47
-93,48
-93,50
-97,49
-97,54
-99,60
-101,60
-100,63
-100,69
-101,72
-99,69
-101,71
-103,78
-108,82
-107,89
-107,92
-109,93
-111,100
-109,106
-104,110
-109,115
-114,115
-114,122
-116,130
-116,131
-119,142
-116,150
-115,150
-114,153
-115,164
-118,171
-117,179
-119,181
-121,187
-119,195
-117,195
-113,202
-115,208
-115,211
-116,213
-116,212
-116,220
-113,224
-112,222
-108,220
-104,222
-105,223
-106,219
-106,220
-105,219
-103,218
-99,208
-98,203
-92,201
-89,183
-84,175
-79,165
-79,152
-82,140
-82,127
-77,115
-78,94
-71,87
-73,69
-73,60
-72,46
-72,33
-75,20
-74,10
-77,5
-74,-3
-75,-14
-73,-20
-75,-29
-75,-30
-78,-37
-79,-35
-80,-36
-77,-40
-81,-43
-82,-41
-78,-39
-83,-43
-86,-40
-85,-40
-88,-39
-87,-40
-91,-34
-88,-32
-85,-35
-88,-36
-84,-36
-87,-33
-86,-35
-88,-36
-88,-31
-91,-28
-94,-33
-91,-35
-92,-36
-89,-40
-88,-40
-87,-37
-91,-40
-88,-42
-89,-38
-89,-50
-93,-45
-84,-44
-87,-48
-83,-47
-86,-49
-87,-56
-89,-51
-89,-53
-85,-54
-85,-58
-81,-58
-83,-60
-82,-59
-88,-64
-86,-63
-87,-60
-90,-63
-90,-63
-83,-63
-86,-64
-88,-62
-87,-69
-88,-67
-91,-68
-89,-70
-91,-69
-91,-66
-91,-68
-87,-64
-84,-71
-86,-71
-85,-70
-81,-68
-79,-66
-73,-65
-69,-69
-68,-63
-65,-68
-58,-64
-57,-64
-54,-63
-54,-57
-54,-54
-48,-51
-45,-50
-44,-45
-46,-44
-49,-47
-54,-48
-59,-49
-60,-56
-65,-68
-63,-67
-66,-68
-68,-73
-69,-77
-71,-80
-74,-81
-76,-83
-83,-86
-88,-86
-87,-80
-89,-82
-94,-78
-94,-81
-88,-79
-94,-77
-94,-79
-98,-82
-97,-76
-99,-82
-96,-79
-95,-75
-97,-80
-92,-77
-91,-79
-94,-76
-91,-80
-93,-76
-92,-74
-90,-75
-90,-75
-87,-74
-85,-74
-84,-74
-80,-80
-73,-79
-60,-75
-32,-78
11,-79
59,-80
103,-73
133,-68
147,-63
148,-94
143,-190
130,-318
112,-446
97,-574
80,-664
77,-686
76,-694
84,-707
83,-712
79,-711
64,-717
49,-713
35,-706
29,-683
45,-663
68,-641
76,-626
64,-606
25,-557
-20,-482
-50,-400
-65,-313
-70,-248
-70,-204
-77,-168
-84,-127
-92,-85
-97,-42
-98,-8
-99,10
-100,22
-96,25
-100,26
-96,24
-96,28
-97,27
-96,29
-96,35
-94,33
-97,38
-94,43
-95,43
-96,44
-93,49
-91,49
-96,52
-99,51
-102,51
-101,58
-101,60
-96,67
-99,72
-99,71
-100,73
-100,76
-102,82
-105,87
-106,95
-107,98
-109,101
-108,102
-108,114
-106,116
-110,120
-110,122
-111,133
-114,132
-114,142
-116,151
-112,155
-109,161
-114,168
-114,171
-113,175
-116,183
-115,193
-111,194
-110,204
-110,202
-111,209
-108,213
-110,216
-113,220
-111,220
-106,223
-109,224
-104,228
-103,224
-98,221
-97,219
-100,216
-97,214
-93,210
-94,204
-87,196
-85,187
-80,173
-76,161
-75,149
-75,137
-77,125
-76,112
-73,98
-73,83
-67,67
-68,53
-69,39
-65,28
-70,15
-69,5
-72,-2
-71,-7
-71,-15
-70,-25
-68,-31
-72,-32
-70,-43
-70,-40
-75,-41
-77,-47
-78,-45
-72,-45
-76,-48
-76,-44
-73,-44
-80,-44
-80,-40
-81,-43
-83,-41
-85,-39
-81,-38
-80,-38
-79,-40
-77,-38
-81,-36
-83,-36
-84,-37
-84,-38
-82,-39
-81,-43
-83,-39
-77,-38
-80,-45
-81,-45
-80,-44
-81,-44
-80,-47
-83,-50
-79,-50
-79,-49
-78,-50
-77,-59
-78,-52
-80,-57
-77,-63
-78,-62
-78,-61
-80,-65
-78,-63
-79,-64
-79,-67
-75,-70
-76,-67
-79,-67
-81,-71
-76,-71
-77,-72
-77,-69
-74,-69
-76,-68
-74,-70
-73,-69
-73,-73
-76,-74
-75,-74
-77,-72
-77,-74
-76,-74
-73,-72
-74,-73
-80,-74
-78,-74
-70,-75
-67,-71
-60,-71
-59,-70
-57,-71
-50,-71
-48,-72
-53,-71
-45,-67
-45,-64
-40,-58
-39,-60
-37,-53
-36,-53
-37,-49
-44,-54
-48,-55
-49,-59
-56,-64
-53,-69
-58,-73
-56,-76
-60,-86
-60,-83
-64,-88
-60,-88
-70,-88
-76,-95
-80,-94
-85,-90
-88,-87
-83,-87
-80,-87
-80,-85
-77,-87
-82,-88
-82,-89
-87,-86
-86,-91
-86,-88
-84,-88
-84,-87
-85,-86
-82,-91
-82,-83
-83,-88
-86,-88
-87,-86
-86,-86
-78,-86
-77,-87
-73,-88
-73,-91
-66,-91
-63,-89
-44,-90
-8,-86
34,-87
82,-86
123,-86
144,-82
154,-79
155,-133
145,-248
128,-376
107,-504
92,-632
85,-695
81,-714
87,-725
89,-729
91,-734
83,-739
66,-740
47,-735
39,-724
46,-707
72,-684
87,-668
78,-648
42,-611
-5,-550
-41,-457
-59,-369
-65,-292
-66,-237
-67,-191
-78,-154
-88,-115
-91,-70
-95,-34
-98,-4
-99,11
-96,16
-97,15
-96,16
-91,19
-95,22
-93,27
-93,25
-96,29
-96,34
-95,34
-97,38
-96,41
-93,46
-93,41
-96,43
-101,43
-99,48
-101,56
-103,58
-99,63
-100,69
-102,70
-100,73
-102,73
-106,82
-109,83
-108,86
-110,93
-110,97
-109,101
-107,108
-110,112
-109,119
-112,121
-113,131
-117,134
-120,138
-113,151
-116,156
-114,161
-115,169
-112,176
-117,178
-117,185
-120,192
-118,198
-114,207
-115,214
-112,215
-112,220
-114,222
-114,223
-115,228
-111,228
-110,232
-110,236
-105,238
-101,238
-99,239
-99,232
-99,228
-98,226
-94,220
-90,211
-89,207
-87,198
-81,185
-78,165
-78,152
-73,140
-77,127
-73,110
-74,103
-75,85
-73,70
-71,54
-69,37
-65,28
-67,20
-71,6
-70,-6
-74,-15
-69,-20
-68,-23
-68,-32
-71,-32
-70,-41
-73,-41
-78,-44
-73,-47
-73,-46
-75,-44
-76,-46
-74,-46
-72,-45
-74,-47
-79,-47
-80,-48
-80,-44
-85,-43
-80,-40
-79,-41
-79,-39
-76,-44
-71,-48
-79,-43
-80,-45
-81,-41
-83,-41
-85,-38
-79,-39
-76,-44
-75,-42
-82,-44
-78,-49
-82,-49
-80,-47
-77,-54
-77,-52
-74,-54
-76,-57
-76,-51
-72,-59
-72,-61
-72,-61
-72,-60
-78,-60
-80,-63
-76,-65
-74,-66
-71,-66
-74,-67
-73,-63
-70,-66
-72,-71
-78,-71
-78,-73
-73,-68
-71,-72
-71,-73
-69,-78
-72,-78
-75,-77
-76,-75
-74,-69
-76,-71
-72,-72
-68,-68
-68,-71
-68,-75
-67,-79
-65,-80
-65,-80
-61,-76
-59,-75
-55,-75
-52,-73
-45,-72
-41,-70
-41,-66
-40,-61
-32,-61
-31,-58
-27,-56
-32,-53
-37,-52
-40,-50
-42,-58
-46,-57
-51,-63
-52,-72
-52,-72
-59,-80
-58,-84
-57,-87
-62,-88
-59,-89
-66,-88
-69,-88
-79,-90
-79,-92
-84,-91
-83,-85
-84,-87
-81,-88
-80,-84
-84,-84
-78,-88
-82,-87
-85,-84
-82,-88
-82,-85
-84,-84
-79,-82
-78,-84
-77,-84
-74,-86
-78,-87
-80,-88
-85,-89
-77,-89
-75,-86
-73,-88
-73,-83
-65,-86
-59,-86
-39,-86
-11,-91
30,-86
78,-82
125,-80
155,-73
170,-73
176,-114
168,-217
148,-345
131,-473
110,-601
99,-663
95,-680
99,-685
105,-692
105,-694
101,-697
90,-699
70,-698
58,-692
61,-670
82,-650
100,-634
99,-622
67,-595
22,-544
-21,-461
-52,-371
-63,-293
-61,-242
-64,-197
-77,-156
-90,-119
-96,-78
-96,-33
-99,-4
-95,13
-96,15
-98,17
-101,11
-99,17
-97,22
-95,21
-101,22
-95,25
-102,29
-103,29
-99,31
-100,33
-100,33
-96,35
-96,39
-94,44
-94,45
-91,51
-98,54
-93,54
-99,57
-101,59
-102,67
-103,70
-102,70
-103,71
-96,73
-102,80
-108,87
-109,90
-109,97
-110,105
-111,107
-111,108
-110,113
-110,117
-113,122
-112,127
-119,135
-119,144
-118,148
-118,151
-118,161
-114,166
-111,171
-110,174
-115,182
-113,184
-114,193
-110,192
-109,199
-107,200
-105,202
-107,200
-105,200
-106,200
-104,206
-95,204
-99,210
-98,204
-92,206
-84,206
-87,195
-89,189
-86,183
-88,176
-78,164
-71,156
-72,141
-68,131
-67,115
-68,108
-70,96
-71,82
-68,66
-68,57
-66,43
-59,32
-58,21
-61,7
-61,-3
-64,-8
-66,-18
-66,-22
-68,-23
-65,-27
-61,-31
-62,-37
-63,-41
-64,-43
-71,-51
-77,-47
-76,-44
-74,-41
-67,-41
-74,-38
-74,-42
-67,-44
-72,-43
-72,-46
-76,-41
-80,-40
-78,-38
-78,-35
-75,-35
-73,-37
-70,-40
-72,-38
-76,-39
-75,-37
-79,-41
-78,-42
-76,-43
-81,-45
-79,-47
-73,-46
-74,-50
-81,-49
-78,-49
-79,-48
-72,-47
-73,-46
-73,-50
-72,-58
-68,-55
-71,-55
-74,-56
-73,-60
-73,-56
-71,-58
-71,-62
-75,-60
-73,-62
-70,-64
-71,-66
-70,-64
-72,-60
-72,-65
-71,-61
-67,-63
-63,-65
-67,-63
-68,-66
-65,-73
-69,-68
-72,-67
-73,-74
-74,-68
-70,-71
-67,-68
-64,-68
-61,-68
-61,-63
-55,-68
-52,-69
-48,-65
-45,-64
-40,-62
-38,-58
-34,-61
-24,-53
-26,-57
-20,-52
-24,-52
-29,-49
-31,-46
-37,-45
-35,-51
-38,-55
-42,-57
-47,-67
-51,-66
-58,-72
-64,-70
-67,-73
-70,-79
-75,-79
-79,-82
-84,-86
-90,-86
-88,-86
-94,-83
-92,-79
-95,-79
-94,-75
-88,-75
-83,-78
-79,-79
-78,-81
-76,-79
-79,-83
-77,-80
-76,-79
-73,-80
-72,-79
-74,-80
-73,-79
-71,-85
-71,-81
-69,-84
-68,-78
-70,-77
-68,-79
-64,-78
-56,-75
-43,-77
-21,-78
14,-79
59,-83
109,-80
147,-79
165,-64
170,-76
172,-123
162,-230
145,-358
119,-476
106,-539
95,-565
92,-571
95,-576
102,-579
104,-578
93,-585
84,-582
63,-575
63,-567
79,-547
96,-528
108,-518
96,-503
60,-472
13,-417
-20,-343
-38,-280
-47,-225
-51,-188
-63,-157
-73,-123
-84,-89
-91,-55
-87,-22
-82,-3
-84,6
-85,4
-83,5
-86,7
-87,8
-91,7
-89,14
-83,13
-85,13
-84,19
-83,19
-80,15
-82,16
-89,21
-90,24
-90,26
-92,29
-89,32
-88,34
-90,35
-95,33
-94,39
-94,36
-97,43
-96,46
-96,48
-98,52
-96,53
-98,57
-101,60
-104,66
-108,69
-108,73
-110,76
-111,80
-110,84
-114,92
-109,94
-110,94
-112,99
-115,108
-115,112
-111,112
-113,119
-114,125
-108,130
-108,133
-108,133
-113,137
-114,142
-113,147
-108,148
-108,148
-104,151
-102,151
-103,155
-103,156
-107,159
-101,162
-103,160
-99,156
-91,151
-90,152
-82,147
-81,141
-77,137
-80,130
-74,119
-72,111
-72,103
-68,95
-64,83
-58,76
-56,64
-61,56
-60,44
-63,35
-61,25
-61,13
-59,10
-57,-2
-57,-9
-61,-16
-63,-22
-67,-28
-63,-31
-72,-31
-68,-35
-68,-35
-66,-37
-66,-37
-67,-35
-69,-40
-71,-41
-71,-37
-70,-39
-76,-34
-71,-33
-67,-33
-69,-35
-71,-38
-72,-38
-75,-38
-72,-32
-72,-35
-75,-35
-76,-32
-76,-33
-73,-37
-73,-35
-75,-38
-72,-39
-75,-41
-74,-37
-69,-39
-68,-37
-70,-41
-68,-39
-67,-42
-70,-43
-72,-46
-67,-43
-71,-45
-74,-43
-71,-45
-64,-45
-64,-51
-63,-47
-67,-52
-71,-49
-67,-52
-67,-52
-66,-51
-68,-51
-64,-51
-60,-56
-64,-55
-64,-59
-67,-55
-69,-56
-67,-51
-71,-57
-66,-59
-64,-58
-61,-57
-65,-57
-61,-56
-68,-53
-64,-59
-68,-57
-63,-58
-60,-58
-57,-59
-52,-61
-46,-62
-40,-60
-40,-58
-43,-56
-37,-50
-32,-49
-30,-46
-21,-48
-20,-49
-20,-45
-22,-47
-25,-43
-32,-44
-38,-45
-38,-44
-40,-45
-41,-52
-46,-58
-44,-61
-50,-63
-46,-67
-51,-66
-57,-66
-61,-71
-68,-76
-64,-71
-69,-70
-72,-70
-76,-68
-75,-67
-73,-68
-73,-65
-75,-64
-76,-68
-79,-69
-75,-68
-79,-64
-77,-67
-76,-67
-77,-65
-82,-70
-79,-70
-80,-65
-79,-66
-71,-66
-69,-67
-70,-64
-75,-64
-77,-71
-74,-65
-66,-69
-50,-65
-34,-63
-3,-69
38,-67
92,-67
133,-64
165,-60
175,-53
180,-68
173,-137
162,-243
142,-348
120,-422
114,-456
105,-468
107,-471
112,-476
114,-474
108,-475
94,-481
78,-478
65,-474
72,-458
94,-441
111,-431
103,-414
73,-403
26,-362
-18,-308
-45,-259
-51,-211
-52,-175
-63,-156
-72,-127
-82,-96
-91,-65
-94,-36
-90,-13
-91,0
-88,-1
-89,0
-90,0
-84,0
-90,1
-92,3
-92,5
-93,6
-90,9
-89,8
-91,15
-86,12
-89,16
-92,20
-94,19
-99,19
-98,20
-97,22
-98,24
-99,28
-100,32
-98,30
-101,30
-104,34
-107,35
-103,39
-106,37
-108,49
-107,48
-107,50
-109,52
-108,54
-113,61
-115,64
-117,66
-116,68
-115,77
-114,79
-117,79
-121,82
-120,89
-120,98
-123,95
-117,100
-121,103
-116,110
-117,116
-116,115
-116,120
-115,121
-119,123
-114,125
-116,124
-113,130
-109,125
-105,132
-110,134
-108,133
-107,133
-106,136
-103,133
-96,132
-90,131
-87,128
-83,118
-82,114
-82,112
-81,102
-76,94
-73,91
-71,82
-68,71
-64,66
-64,56
-62,45
-62,33
-66,26
-66,14
-63,5
-63,2
-63,-3
-59,-10
-62,-18
-63,-23
-63,-28
-67,-32
-66,-31
-68,-29
-64,-33
-63,-34
-64,-34
-66,-38
-67,-38
-71,-45
-75,-43
-74,-38
-78,-34
-77,-36
-77,-32
-78,-33
-79,-37
-76,-32
-78,-36
-78,-36
-82,-35
-79,-35
-80,-35
-78,-38
-79,-42
-74,-35
-76,-34
-72,-43
-75,-40
-79,-38
-77,-41
-83,-43
-79,-38
-76,-39
-76,-46
-77,-43
-79,-42
-79,-48
-79,-44
-80,-50
-79,-48
-78,-49
-78,-50
-74,-50
-77,-51
-74,-54
-75,-53
-77,-52
-78,-50
-77,-51
-76,-54
-75,-55
-77,-54
-74,-55
-73,-55
-77,-54
-78,-57
-76,-53
-76,-57
-75,-57
-77,-51
-75,-57
-75,-57
-77,-53
-76,-58
-77,-58
-73,-52
-68,-58
-63,-52
-58,-54
-50,-57
-49,-58
-45,-58
-46,-48
-42,-52
-38,-47
-35,-46
-32,-42
-34,-43
-37,-42
-40,-46
-45,-44
-48,-46
-52,-48
-54,-54
-55,-58
-60,-57
-59,-68
-63,-65
-59,-63
-63,-67
-69,-70
-76,-74
-80,-71
-84,-72
-80,-72
-83,-70
-87,-69
-87,-71
-86,-69
-84,-72
-86,-71
-89,-69
-88,-69
-86,-73
-87,-69
-87,-67
-85,-72
-85,-70
-86,-73
-88,-69
-87,-73
-89,-72
-87,-73
-82,-73
-79,-71
-81,-72
-79,-71
-75,-72
-65,-72
-50,-68
-23,-72
16,-71
70,-76
124,-72
163,-66
186,-58
190,-67
190,-109
176,-201
151,-303
128,-388
114,-431
103,-454
102,-459
105,-464
106,-465
104,-467
89,-467
62,-469
43,-463
46,-449
64,-433
88,-420
89,-408
63,-395
16,-364
-25,-321
-52,-270
-65,-221
-68,-185
-68,-159
-82,-129
-90,-106
-96,-77
-98,-47
-98,-22
-99,-12
-99,-8
-100,-7
-99,-10
-92,-9
-93,-7
-95,-9
-94,-8
-91,-6
-96,-1
-97,1
-95,2
-94,4
-92,8
-90,5
-93,5
-96,4
-96,6
-102,9
-105,11
-107,14
-104,14
-101,18
-105,19
-102,17
-106,18
-107,22
-108,20
-110,31
-114,30
-118,33
-118,34
-116,39
-113,41
-115,44
-115,46
-121,54
-120,56
-119,56
-119,63
-118,65
-122,67
-122,70
-122,78
-125,75
-125,77
-124,84
-121,89
-121,99
-122,96
-122,98
-116,96
-113,100
-115,100
-118,104
-119,109
-115,106
-112,109
-109,104
-106,108
-103,109
-102,110
-97,106
-98,103
-92,100
-92,99
-85,96
-82,90
-78,85
-76,78
-75,71
-71,63
-71,58
-68,48
-68,42
-64,31
-65,24
-60,14
-64,2
-67,-4
-66,-10
-67,-17
-69,-24
-70,-26
-66,-31
-64,-38
-62,-38
-60,-37
-64,-43
-67,-45
-70,-48
-68,-51
-71,-44
-71,-43
-70,-45
-71,-48
-72,-47
-71,-47
-73,-49
-75,-41
-74,-47
-73,-49
-75,-46
-74,-48
-70,-49
-67,-48
-69,-46
-68,-48
-70,-44
-73,-43
-73,-49
-72,-45
-71,-45
-72,-44
-72,-48
-70,-53
-68,-52
-72,-50
-68,-52
-70,-50
-72,-54
-70,-53
-69,-49
-64,-54
-66,-59
-66,-58
-65,-59
-68,-58
-65,-59
-69,-64
-66,-62
-65,-63
-64,-61
-63,-63
-66,-64
-67,-62
-67,-62
-68,-62
-64,-61
-63,-63
-63,-64
-61,-69
-59,-67
-64,-66
-67,-64
-69,-65
-64,-63
-64,-64
-64,-65
-63,-67
-64,-67
-62,-64
-57,-69
-60,-68
-57,-67
-54,-68
-51,-66
-48,-65
-39,-64
-36,-66
-36,-64
-32,-64
-27,-56
-28,-60
-26,-55
-28,-52
-24,-48
-27,-53
-26,-51
-28,-53
-38,-53
-42,-58
-45,-60
-45,-65
-48,-67
-49,-73
-49,-68
-49,-71
-51,-76
-59,-75
-63,-78
-67,-80
-72,-76
-71,-73
-77,-80
-77,-73
-77,-73
-77,-73
-73,-74
-74,-73
-76,-78
-74,-79
-72,-74
-77,-79
-73,-76
-77,-77
-75,-74
-76,-78
-75,-78
-74,-74
-77,-75
-77,-74
-75,-76
-71,-75
-68,-77
-66,-76
-60,-75
-53,-72
-33,-77
-2,-78
38,-74
95,-77
139,-75
176,-68
181,-61
185,-76
178,-132
164,-220
142,-318
122,-391
112,-428
103,-443
108,-447
114,-452
118,-453
108,-457
96,-457
72,-463
58,-451
65,-435
86,-418
103,-406
104,-400
68,-382
23,-351
-20,-312
-46,-260
-57,-214
-63,-181
-67,-156
-76,-135
-88,-109
-91,-82
-92,-49
-95,-30
-93,-19
-94,-14
-94,-17
-97,-12
-95,-12
-94,-11
-90,-9
-93,-9
-91,-6
-91,-5
-94,-3
-95,0
-99,0
-98,-1
-97,3
-97,7
-95,4
-95,4
-97,3
-102,7
-99,8
-104,13
-110,10
-105,15
-104,18
-104,19
-107,18
-108,24
-109,27
-112,30
-117,32
-119,37
-116,39
-116,41
-116,45
-119,45
-119,49
-123,52
-121,58
-124,62
-125,66
-122,70
-122,76
-120,71
-123,76
-125,81
-127,87
-130,90
-125,97
-121,97
-123,96
-120,102
-118,106
-119,103
-118,106
-121,110
-117,110
-113,111
-114,112
-109,114
-103,111
-104,109
-100,113
-101,111
-99,104
-96,105
-89,102
-84,92
-82,87
-78,81
-77,70
-73,63
-72,52
-75,47
-74,40
-70,28
-69,14
-64,7
-61,0
-63,-10
-70,-17
-69,-24
-72,-31
-73,-34
-73,-39
-71,-41
-69,-45
-67,-47
-69,-49
-71,-53
-71,-56
-76,-51
-74,-51
-72,-51
-73,-51
-69,-50
-74,-50
-74,-48
-74,-50
-73,-48
-77,-50
-77,-49
-74,-44
-72,-46
-73,-48
-74,-48
-73,-47
-79,-42
-79,-48
-79,-47
-82,-46
-75,-47
-78,-46
-74,-46
-72,-48
-71,-50
-72,-52
-74,-56
-78,-55
-76,-53
-79,-57
-72,-59
-76,-60
-70,-56
-69,-61
-67,-61
-71,-59
-75,-60
-74,-66
-76,-64
-76,-63
-74,-63
-71,-64
-67,-62
-70,-69
-71,-67
-71,-65
-70,-63
-72,-68
-68,-64
-71,-67
-69,-69
-69,-66
-67,-67
-70,-70
-72,-69
-72,-69
-73,-64
-72,-66
-70,-64
-69,-69
-62,-69
-56,-70
-56,-71
-55,-69
-58,-75
-52,-69
-51,-70
-45,-68
-41,-65
-38,-66
-32,-66
-30,-62
-27,-56
-30,-57
-28,-51
-32,-51
-32,-48
-35,-49
-40,-54
-40,-59
-43,-61
-47,-68
-54,-64
-49,-68
-53,-70
-52,-72
-55,-76
-60,-79
-62,-80
-71,-83
-79,-87
-80,-82
-79,-77
-77,-74
-73,-77
-77,-73
-79,-74
-78,-80
-75,-81
-80,-81
-82,-78
-80,-78
-84,-75
-80,-79
-76,-79
-76,-84
-75,-78
-78,-79
-77,-83
-81,-82
-77,-79
-79,-78
-72,-77
-70,-79
-64,-79
-54,-82
-41,-80
-12,-81
30,-81
80,-78
127,-78
156,-70
172,-64
172,-75
169,-132
156,-232
132,-331
111,-412
97,-451
89,-470
89,-472
100,-479
103,-482
100,-484
89,-487
66,-484
53,-481
56,-468
79,-452
97,-440
93,-427
61,-417
16,-382
-27,-332
-50,-283
-58,-232
-66,-192
-67,-164
-77,-141
-88,-114
-92,-80
-96,-53
-98,-33
-97,-16
-97,-15
-96,-13
-99,-16
-98,-14
-96,-14
-96,-7
-89,-6
-92,-4
-93,-4
-94,-6
-99,-7
-101,-6
-102,1
-100,1
-101,5
-100,4
-100,6
-98,8
-101,11
-106,14
-104,14
-108,16
-112,19
-111,22
-110,24
-109,29
-108,28
-114,26
-116,34
-118,36
-119,42
-119,46
-119,45
-120,52
-117,52
-123,59
-122,59
-127,61
-128,65
-128,73
-127,76
-126,79
-127,85
-130,86
-125,94
-125,96
-127,99
-125,102
-125,109
-127,109
-125,110
-124,114
-124,117
-124,118
-124,117
-122,118
-118,121
-116,122
-114,124
-113,123
-105,123
-106,119
-104,118
-102,117
-99,110
-95,107
-95,104
-90,99
-85,93
-79,83
-77,75
-75,63
-76,54
-73,42
-74,37
-77,32
-76,25
-70,11
-69,3
-69,-6
-73,-13
-70,-21
-72,-25
-75,-33
-72,-36
-72,-37
-69,-41
-69,-42
-70,-46
-70,-48
-70,-48
-73,-48
-75,-49
-75,-46
-74,-47
-75,-44
-72,-48
-75,-48
-78,-45
-80,-47
-83,-45
-83,-47
-83,-42
-82,-41
-82,-42
-85,-40
-78,-39
-81,-43
-77,-44
-82,-43
-80,-44
-80,-44
-82,-45
-83,-48
-78,-43
-80,-46
-80,-45
-75,-51
-76,-46
-81,-48
-80,-48
-80,-50
-79,-50
-80,-52
-74,-53
-71,-50
-74,-55
-76,-61
-76,-60
-81,-54
-78,-55
-75,-57
-78,-57
-75,-56
-72,-55
-76,-58
-75,-60
-79,-59
-76,-62
-76,-58
-77,-59
-74,-59
-71,-56
-75,-60
-77,-59
-73,-60
-80,-64
-79,-66
-80,-63
-79,-62
-76,-61
-66,-67
-62,-61
-62,-63
-58,-63
-55,-60
-54,-58
-53,-56
-50,-56
-47,-49
-46,-50
-40,-54
-38,-50
-39,-51
-45,-49
-41,-44
-46,-45
-51,-44
-50,-47
-51,-53
-55,-55
-59,-61
-64,-60
-68,-64
-70,-65
-70,-64
-78,-66
-76,-69
-82,-67
-84,-69
-84,-68
-86,-67
-86,-67
-88,-68
-85,-62
-88,-64
-89,-64
-90,-68
-88,-72
-89,-62
-85,-70
-86,-66
-91,-64
-87,-65
-89,-67
-85,-68
-80,-64
-83,-63
-82,-65
-83,-64
-82,-67
-82,-66
-78,-69
-74,-64
-65,-68
-51,-68
-26,-67
9,-71
50,-71
102,-71
140,-72
164,-66
174,-65
173,-91
160,-168
143,-269
119,-362
100,-426
97,-455
86,-467
87,-470
90,-476
86,-475
69,-478
53,-477
33,-473
31,-458
46,-438
61,-420
62,-404
46,-391
9,-365
-33,-327
-58,-277
-68,-231
-71,-194
-69,-163
-82,-139
-92,-114
-103,-85
-106,-55
-105,-28
-103,-13
-100,-4
-103,-7
-104,-5
-104,-5
-102,-5
-104,-3
-105,0
-103,0
-106,0
-105,1
-99,5
-101,2
-103,4
-107,4
-108,7
-114,10
-110,16
-108,16
-105,15
-111,17
-115,18
-115,16
-117,20
-115,23
-116,26
-121,31
-120,34
-116,33
-116,33
-116,36
-123,45
-126,40
-127,47
-129,54
-127,54
-122,61
-128,62
-126,63
-126,66
-125,70
-131,75
-135,76
-134,83
-131,84
-128,91
-124,95
-122,97
-119,98
-119,101
-125,107
-126,109
-124,110
-124,114
-123,115
-121,113
-116,114
-113,120
-114,118
-115,117
-117,119
-113,116
-113,113
-103,116
-92,113
-93,106
-92,102
-86,94
-84,86
-85,82
-83,75
-83,70
-84,65
-82,53
-79,47
-76,34
-72,25
-73,15
-74,9
-77,1
-78,-6
-75,-13
-76,-20
-73,-25
-73,-32
-72,-34
-75,-39
-78,-37
-82,-39
-79,-41
-78,-43
-72,-44
-74,-48
-74,-48
-73,-44
-75,-47
-76,-45
-80,-41
-84,-39
-80,-43
-76,-43
-76,-42
-77,-42
-76,-41
-82,-40
-80,-39
-76,-38
-76,-35
-78,-38
-75,-40
-72,-38
-68,-40
-70,-39
-72,-41
-74,-43
-73,-40
-75,-43
-73,-44
-70,-40
-68,-46
-66,-44
-69,-43
-72,-46
-69,-47
-69,-47
-68,-47
-69,-48
-67,-49
-61,-51
-56,-51
-60,-53
-64,-53
-65,-57
-68,-54
-66,-59
-66,-57
-60,-55
-64,-58
-64,-58
-60,-53
-62,-55
-61,-59
-60,-55
-60,-57
-63,-57
-60,-61
-58,-58
-57,-56
-53,-58
-58,-55
-55,-56
-56,-60
-52,-55
-44,-60
-38,-58
-38,-61
-37,-59
-35,-61
-31,-59
-28,-50
-26,-51
-24,-46
-20,-48
-17,-50
-12,-48
-17,-47
-24,-47
-25,-49
-29,-48
-31,-47
-35,-48
-38,-56
-37,-56
-35,-59
-37,-61
-37,-67
-43,-62
-43,-71
-51,-69
-55,-68
-60,-68
-58,-72
-61,-68
-53,-67
-51,-68
-58,-62
-64,-67
-66,-63
-66,-63
-64,-66
-61,-64
-61,-67
-57,-64
-51,-65
-55,-65
-57,-66
-60,-66
-59,-64
-59,-64
-54,-67
-48,-64
-48,-68
-45,-72
-46,-73
-42,-67
-36,-71
-25,-68
0,-67
35,-68
87,-70
139,-74
175,-71
196,-68
198,-78
199,-105
190,-172
176,-260
153,-339
135,-392
126,-417
127,-422
134,-432
133,-434
129,-435
117,-432
99,-436
86,-429
86,-417
103,-397
119,-387
120,-372
93,-357
45,-330
2,-299
-25,-256
-40,-210
-42,-179
-42,-151
-51,-125
-64,-107
-66,-85
-76,-52
-80,-31
-79,-22
-78,-14
-76,-15
-70,-11
-71,-14
-67,-11
-68,-12
-71,-5
-71,-8
-75,-5
-74,-3
-74,-5
-77,0
-76,2
-72,3
-68,4
-71,5
-71,8
-75,10
-77,6
-77,9
-80,11
-80,9
-83,16
-82,16
-81,16
-84,19
-90,21
-96,27
-92,30
-87,31
-86,33
-91,36
-94,38
-96,42
-100,42
-100,47
-101,46
-102,50
-101,60
-101,56
-101,61
-98,62
-99,67
-101,71
-107,75
-106,74
-106,78
-104,82
-99,85
-98,88
-94,90
-97,93
-94,93
-98,94
-96,94
-91,97
-94,95
-90,98
-85,98
-83,100
-85,98
-81,97
-81,92
-81,92
-76,89
-74,84
-67,81
-63,77
-59,72
-51,64
-53,57
-47,51
-53,41
-50,34
-50,27
-46,20
-42,9
-38,9
-38,-3
-40,-10
-44,-16
-48,-19
-50,-25
-47,-28
-46,-32
-43,-37
-42,-39
-46,-42
-42,-44
-42,-45
-44,-42
-51,-41
-50,-43
-48,-43
-48,-41
-50,-43
-49,-47
-50,-43
-50,-43
-50,-41
-52,-42
-52,-35
-48,-38
-44,-39
-41,-38
-47,-39
-45,-39
-44,-37
-46,-36
-47,-35
-40,-37
-38,-37
-38,-37
-43,-42
-45,-42
-46,-39
-43,-40
-42,-42
-41,-39
-41,-42
-38,-47
-40,-44
-39,-42
-37,-46
-39,-48
-35,-41
-35,-46
-33,-46
-35,-47
-38,-45
-37,-48
-40,-51
-39,-48
-38,-54
-40,-50
-43,-53
-37,-58
-36,-53
-37,-50
-35,-48
-33,-52
-31,-52
-29,-54
-32,-56
-35,-57
-39,-56
-38,-54
-36,-57
-27,-54
-28,-57
-26,-56
-31,-52
-35,-57
-32,-58
-26,-52
-23,-56
-18,-56
-9,-55
-7,-55
-3,-52
-3,-54
-7,-52
-12,-49
-8,-49
-3,-44
0,-42
7,-39
5,-39
2,-40
0,-40
-4,-40
-6,-42
-10,-50
-13,-55
-13,-56
-14,-53
-16,-56
-15,-64
-17,-62
-23,-61
-26,-64
-33,-68
-34,-64
-35,-61
-39,-61
-43,-58
-46,-61
-42,-63
-41,-64
-43,-62
-44,-64
-45,-60
-41,-58
-40,-64
-38,-59
-37,-61
-34,-64
-32,-64
-41,-66
-38,-62
-35,-65
-38,-64
-35,-64
-32,-67
-27,-69
-21,-63
-16,-61
-8,-64
7,-68
36,-70
75,-71
123,-71
169,-71
196,-71
212,-74
214,-92
211,-147
195,-237
179,-328
159,-398
147,-437
145,-447
145,-450
152,-453
158,-459
149,-462
125,-464
107,-463
96,-457
103,-442
130,-426
143,-414
135,-401
101,-384
57,-348
13,-303
-7,-256
-13,-208
-18,-172
-25,-148
-32,-122
-40,-99
-43,-74
-50,-45
-50,-26
-56,-11
-53,-7
-54,-6
-56,-5
-58,-2
-52,0
-52,2
-56,0
-55,4
-55,5
-55,6
-58,10
-63,10
-58,18
-56,13
-56,18
-54,11
-58,20
-61,21
-64,19
-64,25
-64,26
-62,28
-66,28
-68,33
-69,34
-71,40
-70,41
-70,42
-70,46
-79,46
-82,53
-82,55
-79,67
-76,71
-80,68
-86,71
-87,77
-85,82
-83,87
-84,91
-80,93
-85,95
-83,105
-84,110
-83,113
-86,117
-89,121
-87,124
-85,132
-82,133
-76,134
-75,139
-77,138
-81,137
-79,143
-76,148
-73,148
-72,152
-65,147
-66,150
-65,148
-67,145
-67,139
-64,141
-62,136
-57,129
-55,122
-47,114
-43,109
-41,101
-39,93
-39,79
-36,66
-36,58
-27,44
-30,39
-37,26
-31,15
-30,7
-29,-2
-32,-10
-35,-17
-37,-24
-37,-27
-33,-37
-30,-43
-36,-39
-37,-44
-39,-45
-38,-47
-42,-46
-46,-48
-41,-48
-41,-46
-40,-43
-34,-45
-36,-44
-38,-47
-46,-46
-44,-43
-43,-40
-43,-42
-41,-40
-39,-39
-40,-44
-39,-41
-43,-40
-45,-42
-39,-41
-38,-40
-40,-41
-35,-43
-33,-38
-32,-41
-36,-43
-39,-47
-38,-44
-32,-45
-28,-47
-33,-51
-35,-47
-27,-48
-27,-48
-25,-53
-27,-53
-29,-58
-28,-58
-27,-57
-32,-58
-28,-54
-28,-58
-28,-63
-36,-65
-39,-59
-35,-60
-30,-61
-32,-61
-33,-64
-31,-59
-28,-61
-28,-60
-30,-63
-25,-63
-27,-63
-31,-64
-32,-64
-29,-65
-25,-67
-25,-68
-18,-68
-19,-71
-17,-72
-20,-68
-17,-71
-14,-71
-11,-69
-7,-68
-6,-66
-4,-63
0,-61
9,-56
11,-61
9,-61
13,-55
9,-50
9,-54
3,-54
5,-54
0,-56
-8,-54
-8,-63
-9,-66
-18,-71
-20,-75
-16,-76
-13,-76
-11,-78
-11,-79
-22,-84
-30,-81
-35,-82
-37,-83
-40,-83
-42,-80
-36,-78
-33,-74
-35,-76
-43,-84
-45,-82
-40,-81
-40,-83
-36,-86
-36,-88
-31,-82
-32,-80
-32,-79
-31,-82
-34,-87
-34,-89
-34,-85
-31,-85
-26,-87
-26,-83
-26,-87
-19,-89
-11,-91
3,-93
39,-92
86,-96
141,-104
181,-105
203,-109
211,-112
213,-136
203,-210
187,-330
162,-458
144,-558
134,-601
134,-621
134,-632
141,-640
146,-645
133,-651
123,-650
109,-652
97,-645
106,-629
132,-609
149,-593
135,-576
99,-547
50,-503
15,-433
-9,-356
-19,-285
-21,-230
-29,-190
-34,-155
-44,-123
-54,-83
-56,-48
-61,-21
-55,-8
-49,-2
-45,0
-53,-4
-54,5
-50,9
-51,6
-49,7
-49,10
-56,14
-58,15
-52,15
-49,18
-50,24
-49,30
-52,32
-52,33
-57,35
-53,37
-61,44
-61,46
-58,48
-62,46
-64,52
-61,56
-64,59
-64,65
-61,69
-57,73
-59,73
-67,77
-72,79
-74,86
-77,89
-85,97
-83,99
-84,106
-84,108
-86,114
-82,124
-88,129
-85,138
-85,137
-79,142
-75,143
-71,152
-71,155
-75,168
-70,178
-70,185
-71,188
-79,192
-79,188
-80,191
-77,189
-74,185
-79,195
-89,196
-92,200
-87,201
-77,203
-68,200
-63,197
-64,192
-66,189
-60,180
-53,173
-42,166
-41,158
-42,146
-42,136
-42,120
-40,107
-34,95
-34,81
-33,67
-26,57
-24,42
-29,29
-32,23
-35,10
-38,0
-32,-11
-28,-25
-34,-28
-40,-34
-45,-40
-39,-39
-26,-46
-23,-49
-24,-50
-32,-54
-40,-56
-49,-58
-63,-61
-59,-59
-55,-56
-45,-49
-44,-54
-35,-58
-36,-52
-40,-49
-50,-51
-55,-48
-59,-51
-51,-54
-47,-46
-41,-48
-40,-49
-36,-45
-39,-43
-48,-47
-53,-52
-53,-46
-48,-43
-41,-51
-42,-45
-46,-48
-48,-51
-42,-53
-26,-50
-23,-50
-26,-52
-41,-54
-53,-59
-54,-67
-54,-61
-47,-59
-53,-57
-50,-64
-46,-65
-39,-64
-36,-64
-36,-65
-39,-64
-36,-67
-30,-70
-33,-66
-38,-67
-34,-68
-28,-66
-24,-67
-28,-73
-35,-74
-50,-76
-58,-71
-57,-71
-50,-75
-41,-73
-36,-69
-33,-73
-28,-77
-27,-79
-18,-71
-24,-71
-29,-73
-27,-71
-26,-72
-16,-70
-6,-72
-3,-66
1,-67
5,-61
0,-61
1,-61
0,-57
2,-56
12,-54
18,-48
13,-52
-5,-60
-31,-64
-48,-71
-50,-73
-43,-73
-37,-72
-38,-80
-40,-82
-44,-83
-38,-84
-41,-83
-45,-85
-46,-92
-46,-94
-51,-90
-56,-89
-56,-83
-58,-84
-49,-84
-34,-80
-30,-82
-43,-88
-59,-90
-65,-86
-64,-83
-59,-84
-47,-87
-39,-82
-33,-87
-38,-87
-50,-85
-55,-85
-58,-83
-59,-85
-53,-87
-50,-84
-48,-84
-42,-86
-18,-85
25,-88
79,-86
133,-87
170,-85
185,-80
191,-97
186,-154
177,-274
162,-402
147,-530
134,-644
121,-680
118,-694
112,-702
111,-711
108,-713
97,-716
87,-720
67,-724
56,-717
66,-701
94,-688
125,-675
124,-663
85,-631
29,-574
-9,-493
-14,-399
-3,-320
-12,-258
-45,-219
-86,-166
-110,-119
-119,-74
-106,-37
-99,-3
-91,11
-83,19
-79,23
-66,23
-62,22
-66,32
-73,30
-87,33
-99,31
-104,29
-93,36
-71,37
-63,39
-58,46
-58,46
-64,49
-75,52
-80,55
-90,60
-97,57
-104,54
-101,63
-103,68
-116,75
-114,76
-112,83
-104,88
-100,94
-105,96
-108,101
-110,104
-112,110
-113,114
-117,119
-118,123
-116,132
-121,141
-125,147
-134,148
-139,153
-130,163
-109,171
-103,181
-99,184
-98,195
-98,200
-112,206
-119,209
-119,213
-108,214
-107,221
-107,224
-109,229
-121,233
-147,239
-163,238
-156,238
-131,236
-115,236
-109,237
-109,241
-112,249
-111,243
-113,235
-110,222
-107,215
-101,205
-93,196
-89,189
-85,182
-85,164
-84,150
-80,134
-75,121
-76,103
-82,86
-95,80
-105,58
-108,47
-101,28
-90,19
-86,5
-91,-5
-90,-5
-90,-17
-99,-23
-114,-24
-119,-28
-112,-32
-109,-37
-104,-37
-104,-44
-102,-36
-105,-41
-105,-41
-103,-43
-103,-39
-104,-39
-96,-37
-75,-37
-57,-36
-66,-37
-97,-35
-117,-33
-115,-35
-98,-31
-93,-30
-103,-31
-109,-29
-111,-32
-123,-35
-135,-35
-146,-30
-140,-32
-128,-31
-116,-32
-107,-37
-99,-30
-91,-36
-90,-33
-86,-36
-79,-36
-69,-36
-57,-41
-62,-41
-92,-45
-126,-46
-132,-55
-97,-55
-66,-56
-72,-52
-101,-50
-120,-43
-122,-47
-114,-47
-111,-51
-111,-54
-112,-56
-109,-59
-107,-54
-98,-55
-80,-56
-63,-53
-58,-49
-74,-46
-98,-54
-95,-54
-79,-55
-60,-59
-59,-56
-79,-53
-89,-51
-88,-50
-91,-53
-107,-54
-126,-55
-111,-55
-85,-54
-64,-51
-59,-44
-77,-41
-75,-35
-70,-32
-64,-31
-62,-36
-60,-43
-54,-40
-45,-39
-43,-39
-56,-45
-78,-49
-87,-55
-76,-58
-70,-59
-82,-64
-82,-67
-77,-69
-72,-69
-78,-69
-94,-69
-92,-68
-91,-67
-111,-66
-136,-69
-143,-69
-131,-69
-119,-66
-110,-69
-107,-63
-93,-63
-75,-62
-56,-67
-51,-68
-80,-70
-111,-74
-112,-72
-87,-78
-76,-80
-79,-77
-106,-79
-135,-71
-142,-66
-126,-72
-105,-77
-80,-80
-44,-81
-8,-81
26,-78
73,-87
127,-99
172,-102
196,-112
210,-142
202,-206
174,-329
152,-457
126,-585
105,-646
81,-668
63,-685
66,-685
64,-692
43,-693
35,-691
37,-682
42,-670
55,-644
76,-614
91,-604
86,-592
49,-559
-3,-504
-41,-432
-59,-351
-65,-283
-68,-230
-64,-189
-69,-155
-87,-110
-102,-69
-102,-35
-100,-6
-121,5
-144,9
-161,11
-156,16
-145,24
-135,26
-129,27
-118,37
-116,43
-109,48
-99,55
-90,59
-76,65
-77,67
-82,71
-95,58
-103,53
-92,48
-63,51
-58,51
-111,50
-179,55
-196,60
-174,61
-144,69
-130,74
-140,77
-150,91
-154,99
-151,99
-141,102
-123,106
-119,107
-128,112
-136,127
-119,130
-91,130
-76,139
-78,145
-106,148
-168,155
-227,166
-228,169
-183,177
-133,186
-120,194
-149,202
-188,205
-200,217
-181,209
-162,206
-148,201
-143,200
-136,205
-115,211
-103,225
-107,224
-133,229
-153,233
-151,229
-128,224
-101,218
-98,218
-121,210
-152,208
-161,201
-151,193
-147,178
-142,170
-132,159
-123,152
-113,137
-101,126
-92,113
-96,99
-105,85
-103,74
-100,59
-98,48
-101,34
-105,16
-108,13
-103,6
-103,-7
-96,-9
-95,-14
-102,-19
-103,-24
-102,-28
-96,-32
-83,-35
-73,-33
-67,-31
-73,-30
-84,-24
-107,-25
-122,-29
-132,-32
-118,-34
-110,-32
-112,-31
-127,-29
-129,-25
-127,-26
-122,-27
-109,-24
-93,-28
-92,-25
-106,-23
-114,-23
-118,-21
-111,-24
-102,-31
-91,-33
-89,-32
-85,-36
-86,-38
-103,-33
-112,-39
-113,-41
-106,-37
-101,-42
-94,-36
-89,-45
-92,-43
-110,-44
-130,-46
-127,-44
-112,-42
-89,-44
-79,-47
-96,-46
-115,-45
-116,-45
-106,-49
-101,-49
-92,-51
-97,-51
-95,-49
-84,-53
-69,-53
-48,-51
-38,-51
-42,-52
-64,-51
-79,-51
-78,-56
-68,-55
-52,-57
-42,-56
-59,-60
-99,-58
-134,-52
-130,-54
-97,-52
-63,-49
-58,-48
-60,-38
-57,-28
-41,-22
-39,-29
-34,-31
-26,-40
-30,-30
-55,-21
-76,-26
-71,-24
-45,-21
-9,-18
-11,-27
-46,-45
-90,-59
-115,-74
-109,-81
-97,-87
-81,-82
-77,-80
-88,-79
-96,-73
-101,-70
-97,-71
-98,-64
-97,-64
-94,-60
-88,-60
-77,-61
-70,-62
-66,-64
-73,-63
-78,-63
-79,-67
-76,-65
-71,-60
-79,-61
-104,-66
-116,-66
-111,-70
-110,-68
-106,-64
-100,-59
-86,-59
-71,-56
-70,-60
-77,-58
-64,-59
-42,-64
7,-68
66,-68
112,-63
138,-62
162,-55
190,-56
223,-99
232,-209
208,-337
150,-465
79,-593
34,-674
34,-693
48,-708
77,-707
91,-714
96,-719
87,-718
68,-717
56,-702
60,-682
81,-667
104,-653
101,-640
74,-607
20,-543
-28,-449
-63,-359
-74,-277
-76,-220
-75,-178
-77,-139
-81,-91
-81,-45
-95,-5
-110,19
-120,29
-119,29
-110,28
-96,30
-85,37
-74,40
-72,46
-74,46
-88,41
-102,45
-121,46
-131,45
-132,47
-136,54
-139,53
-127,57
-115,60
-94,66
-83,68
-81,69
-101,69
-125,74
-127,75
-118,80
-99,82
-91,83
-106,92
-136,97
-149,103
-155,99
-156,106
-147,111
-129,118
-118,130
-124,128
-136,135
-150,139
-141,143
-120,152
-103,158
-100,164
-117,171
-139,179
-150,183
-159,186
-147,190
-127,191
-109,201
-127,212
-152,217
-191,222
-205,223
-192,222
-178,223
-161,223
-147,230
-136,240
-127,248
-123,246
-132,243
-137,241
-132,238
-122,235
-120,226
-121,221
-117,211
-103,206
-95,196
-108,186
-129,172
-135,162
-130,145
-118,131
-107,116
-105,107
-112,96
-116,86
-116,74
-106,58
-101,44
-95,31
-90,21
-82,13
-84,7
-95,-3
-104,-11
-111,-15
-111,-17
-101,-27
-89,-29
-83,-30
-85,-31
-108,-35
-122,-30
-122,-31
-113,-32
-124,-35
-138,-29
-140,-28
-133,-28
-133,-24
-127,-23
-128,-25
-128,-26
-126,-23
-121,-17
-116,-19
-114,-22
-116,-23
-120,-29
-119,-24
-119,-25
-124,-27
-127,-21
-119,-24
-107,-24
-102,-24
-99,-28
-89,-31
-85,-32
-85,-30
-95,-35
-120,-33
-140,-41
-152,-36
-149,-43
-132,-44
-111,-41
-106,-38
-117,-40
-129,-37
-134,-34
-134,-38
-126,-42
-112,-42
-102,-47
-100,-45
-110,-42
-122,-43
-124,-42
-125,-41
-123,-44
-118,-46
-114,-50
-115,-46
-115,-46
-110,-50
-99,-48
-91,-48
-81,-44
-70,-45
-73,-44
-76,-42
-84,-46
-90,-48
-91,-46
-94,-46
-97,-37
-92,-36
-81,-27
-71,-24
-64,-20
-61,-19
-58,-22
-73,-21
-95,-24
-116,-25
-105,-26
-82,-35
-74,-34
-92,-41
-110,-43
-111,-45
-100,-51
-101,-54
-104,-60
-110,-56
-118,-56
-117,-53
-104,-57
-93,-53
-108,-57
-121,-59
-124,-52
-122,-52
-118,-52
-121,-56
-123,-54
-122,-52
-119,-58
-123,-53
-132,-58
-128,-57
-122,-54
-109,-55
-105,-49
-109,-51
-128,-50
-133,-49
-120,-50
-105,-52
-101,-54
-105,-58
-99,-51
-93,-49
-69,-49
-26,-53
26,-60
89,-65
138,-55
160,-45
168,-50
168,-115
158,-243
135,-371
111,-499
89,-627
84,-667
90,-690
91,-697
80,-703
66,-705
43,-704
19,-700
0,-685
9,-659
42,-629
66,-603
68,-579
43,-547
6,-492
-44,-417
-94,-337
-128,-269
-130,-217
-130,-180
-132,-140
-135,-100
-141,-51
-144,-7
-143,16
-142,26
-136,32
-133,31
-128,32
-123,37
-110,30
-108,37
-113,35
-119,38
-116,43
-118,44
-116,47
-106,45
-108,45
-125,44
-152,43
-173,50
-173,55
-162,55
-155,59
-155,60
-157,67
-151,71
-147,72
-139,75
-136,74
-143,77
-144,80
-146,85
-150,90
-155,95
-151,93
-145,93
-144,102
-147,109
-143,115
-144,116
-140,123
-131,127
-122,132
-127,136
-147,139
-168,147
-177,155
-180,158
-176,166
-172,168
-168,175
-166,180
-160,186
-162,190
-160,195
-157,201
-160,206
-157,205
-154,208
-144,209
-128,210
-117,214
-126,209
-146,210
-157,208
-155,205
-149,200
-137,199
-124,190
-126,188
-120,180
-95,172
-60,161
-54,146
-78,132
-124,122
-157,113
-167,95
-148,81
-128,66
-110,52
-103,46
-108,42
-107,28
-95,15
-88,10
-86,0
-87,-6
-91,-16
-95,-26
-99,-20
-108,-31
-110,-30
-123,-34
-121,-32
-113,-34
-105,-32
-99,-32
-86,-32
-72,-29
-74,-31
-79,-29
-95,-29
-117,-32
-135,-28
-130,-26
-110,-27
-98,-29
-97,-25
-99,-23
-92,-26
-86,-31
-98,-28
-114,-27
-116,-27
-110,-26
-105,-26
-96,-28
-78,-31
-66,-33
-74,-33
-101,-36
-109,-32
-101,-37
-87,-36
-82,-44
-86,-40
-88,-41
-83,-42
-79,-41
-78,-43
-80,-46
-75,-48
-66,-48
-76,-53
-95,-52
-103,-51
-100,-51
-87,-50
-79,-49
-77,-50
-78,-51
-76,-49
-77,-52
-75,-57
-67,-58
-64,-49
-82,-55
-100,-56
-104,-54
-92,-51
-73,-55
-56,-51
-50,-56
-52,-52
-59,-53
-66,-51
-74,-54
-69,-54
-58,-53
-41,-51
-34,-48
-30,-48
-28,-38
-23,-33
-26,-34
-44,-29
-53,-29
-37,-33
-19,-35
-20,-40
-27,-43
-38,-49
-48,-50
-56,-51
-43,-53
-23,-57
-31,-58
-64,-60
-93,-65
-111,-62
-114,-63
-101,-62
-88,-63
-71,-63
-66,-57
-64,-54
-69,-58
-75,-63
-69,-64
-49,-58
-18,-57
-4,-64
-41,-64
-92,-65
-123,-61
-118,-63
-98,-68
-71,-73
-56,-70
-52,-64
-69,-61
-84,-60
-86,-55
-78,-65
-68,-66
-47,-64
-29,-66
-17,-64
1,-63
40,-67
96,-70
153,-61
195,-55
224,-55
234,-104
236,-219
229,-347
204,-475
160,-603
126,-652
107,-670
110,-685
123,-690
143,-689
162,-696
157,-696
132,-687
91,-677
82,-659
106,-643
127,-621
105,-608
55,-570
-6,-502
-51,-412
-69,-323
-61,-256
-48,-206
-44,-170
-52,-134
-77,-95
-95,-51
-85,-17
-75,6
-69,18
-68,20
-67,20
-63,23
-71,23
-78,28
-83,22
-89,25
-90,29
-86,29
-68,30
-54,33
-57,36
-76,30
-102,35
-107,41
-85,42
-51,50
-53,53
-73,53
-101,53
-104,58
-76,60
-51,63
-65,64
-101,63
-121,67
-127,68
-111,73
-92,74
-75,77
-59,85
-59,97
-83,109
-115,112
-134,116
-121,116
-101,114
-95,126
-116,132
-130,138
-133,143
-120,147
-97,151
-77,157
-84,166
-105,173
-121,178
-117,179
-114,182
-119,180
-135,190
-140,195
-128,196
-118,200
-106,204
-88,206
-77,205
-89,208
-124,212
-136,207
-128,204
-103,200
-83,202
-73,195
-76,189
-81,183
-82,173
-72,158
-59,143
-41,128
-44,115
-60,105
-75,94
-58,80
-29,70
-7,58
-14,39
-55,27
-112,16
-115,2
-91,-10
-74,-23
-70,-28
-63,-35
-63,-31
-67,-23
-59,-26
-40,-38
-32,-43
-40,-52
-49,-48
-61,-43
-68,-42
-66,-46
-71,-53
-72,-58
-73,-59
-70,-55
-62,-51
-46,-45
-52,-45
-63,-39
-77,-43
-86,-44
-86,-38
-69,-38
-43,-39
-28,-42
-36,-44
-56,-47
-78,-47
-104,-47
-113,-45
-106,-50
-93,-43
-77,-50
-60,-55
-49,-50
-56,-48
-61,-47
-68,-46
-76,-42
-80,-50
-80,-59
-75,-64
-51,-66
-21,-65
-16,-64
-35,-64
-73,-64
-101,-59
-109,-61
-102,-63
-79,-72
-65,-76
-58,-69
-61,-63
-62,-57
-63,-56
-65,-65
-70,-68
-68,-69
-62,-70
-63,-66
-71,-69
-73,-75
-62,-71
-55,-68
-64,-69
-78,-72
-85,-70
-82,-63
-74,-59
-64,-67
-31,-66
-3,-66
-2,-65
-40,-52
-80,-51
-89,-43
-76,-46
-60,-49
-47,-45
-36,-47
-37,-44
-43,-42
-44,-42
-36,-48
-29,-56
-21,-60
-31,-61
-51,-64
-64,-63
-59,-69
-40,-81
-31,-82
-52,-80
-81,-75
-97,-71
-106,-70
-110,-82
-118,-77
-118,-70
-111,-70
-97,-68
-89,-63
-82,-64
-83,-63
-87,-66
-85,-71
-67,-69
-48,-67
-31,-74
-38,-71
-75,-71
-102,-72
-111,-74
-103,-77
-98,-79
-87,-74
-77,-69
-72,-68
-61,-66
-48,-65
-31,-68
6,-70
56,-77
111,-77
157,-73
184,-64
195,-68
180,-116
161,-233
131,-361
112,-489
104,-609
96,-649
87,-670
74,-678
63,-679
60,-690
62,-691
49,-690
42,-680
46,-669
51,-639
68,-618
83,-597
80,-581
51,-547
17,-485
-11,-409
-32,-329
-52,-264
-74,-213
-98,-168
-98,-132
-87,-97
-90,-57
-103,-24
-106,-4
-105,9
-116,18
-121,16
-133,17
-120,23
-108,24
-101,18
-96,24
-97,25
-96,26
-90,28
-84,28
-73,36
-66,39
-68,44
-61,43
-58,40
-67,44
-95,38
-117,42
-127,43
-139,48
-145,50
-144,49
-133,58
-124,63
-115,68
-116,78
-112,83
-99,87
-84,84
-79,92
-93,94
-119,95
-131,101
-131,99
-123,105
-114,113
-121,124
-127,131
-129,133
-142,138
-149,136
-151,139
-141,150
-134,156
-115,166
-100,170
-86,176
-88,176
-98,182
-127,181
-152,183
-158,182
-152,179
-138,182
-126,181
-118,186
-115,192
-120,191
-121,193
-119,188
-118,185
-105,178
-94,176
-81,170
-82,159
-97,150
-103,142
-95,128
-90,116
-92,104
-89,90
-87,81
-85,70
-77,61
-70,44
-72,31
-82,10
-96,1
-100,-5
-98,-11
-95,-15
-86,-25
-69,-21
-51,-27
-31,-31
-32,-38
-58,-45
-97,-45
-125,-52
-128,-52
-122,-56
-113,-55
-102,-53
-88,-49
-74,-45
-55,-40
-46,-38
-50,-46
-54,-44
-62,-47
-91,-48
-123,-47
-138,-47
-126,-50
-107,-50
-87,-47
-82,-43
-87,-42
-89,-39
-92,-39
-84,-41
-81,-47
-77,-47
-78,-52
-80,-56
-76,-53
-64,-52
-58,-52
-69,-51
-77,-53
-88,-54
-77,-57
-70,-57
-76,-60
-92,-65
-111,-63
-103,-64
-97,-65
-89,-63
-78,-57
-76,-57
-75,-61
-67,-60
-55,-67
-48,-63
-55,-67
-72,-63
-79,-67
-80,-70
-84,-73
-75,-79
-49,-75
-33,-71
-26,-70
-41,-71
-60,-68
-70,-68
-73,-63
-68,-66
-64,-67
-61,-63
-60,-62
-54,-57
-48,-48
-37,-46
-24,-43
-14,-45
-6,-49
-16,-55
-39,-54
-62,-61
-63,-68
-43,-71
-32,-73
-41,-73
-63,-76
-69,-76
-71,-80
-71,-80
-64,-81
-64,-88
-77,-78
-102,-76
-110,-72
-102,-73
-79,-68
-70,-71
-67,-77
-57,-72
-46,-70
-50,-69
-64,-74
-80,-75
-91,-73
-85,-77
-65,-74
-51,-76
-40,-77
-48,-74
-64,-71
-84,-72
-89,-70
-76,-71
-49,-72
-29,-73
-12,-76
-15,-72
0,-74
40,-74
102,-77
164,-76
202,-73
214,-68
201,-86
187,-173
178,-301
166,-429
151,-557
139,-625
144,-651
145,-668
134,-674
122,-676
107,-683
95,-683
88,-680
79,-667
80,-643
103,-619
125,-598
126,-580
97,-551
44,-489
-7,-410
-40,-336
-50,-266
-46,-222
-41,-186
-40,-150
-43,-117
-44,-76
-44,-40
-51,-11
-58,0
-72,0
-85,4
-92,-3
-100,2
-98,9
-89,11
-70,17
-63,18
-61,21
-67,18
-63,23
-55,25
-62,28
-75,26
-80,27
-80,31
-76,30
-76,30
-67,36
-72,42
-85,45
-90,50
-100,50
-92,51
-83,53
-86,53
-92,57
-108,60
-106,65
-94,74
-84,81
-80,80
-82,85
-91,89
-91,93
-100,99
-97,109
-87,111
-93,114
-102,118
-115,125
-116,131
-120,130
-123,141
-114,145
-98,154
-86,157
-90,162
-96,165
-100,170
-108,174
-110,173
-119,178
-125,181
-128,186
-126,181
-123,186
-112,186
-96,186
-84,185
-85,188
-88,180
-82,175
-70,172
-54,164
-55,155
-57,150
-51,141
-49,127
-50,115
-58,102
-67,89
-80,77
-77,62
-65,47
-46,42
-36,30
-41,17
-61,8
-75,-6
-75,-16
-65,-27
-60,-29
-47,-33
-46,-42
-54,-48
-56,-53
-51,-55
-37,-59
-43,-62
-37,-60
-33,-61
-33,-60
-37,-57
-39,-57
-46,-63
-63,-64
-70,-71
-74,-64
-80,-62
-81,-58
-82,-52
-76,-53
-66,-51
-63,-52
-62,-54
-60,-52
-45,-55
-41,-54
-49,-55
-74,-52
-85,-52
-68,-55
-50,-58
-36,-62
-31,-68
-29,-63
-29,-54
-35,-56
-56,-56
-72,-60
-78,-67
-74,-72
-72,-70
-62,-72
-57,-71
-58,-67
-56,-69
-52,-65
-55,-65
-53,-72
-43,-75
-32,-76
-34,-76
-39,-71
-43,-76
-46,-76
-64,-76
-70,-74
-57,-77
-44,-81
-44,-81
-54,-75
-64,-75
-61,-77
-55,-74
-44,-74
-40,-76
-33,-76
-23,-73
-9,-75
-6,-81
-33,-77
-59,-79
-61,-79
-43,-74
-20,-68
-7,-64
-6,-71
-8,-61
-10,-60
-6,-55
-5,-53
-8,-52
-7,-58
2,-53
9,-57
12,-61
-3,-68
-24,-73
-44,-74
-52,-79
-45,-82
-33,-84
-26,-89
-33,-84
-46,-88
-55,-87
-57,-84
-56,-87
-58,-84
-56,-84
-55,-80
-55,-79
-51,-79
-45,-80
-36,-81
-32,-82
-38,-84
-56,-84
-59,-82
-55,-87
-53,-81
-66,-82
-77,-84
-80,-82
-71,-78
-59,-80
-43,-85
-37,-80
-39,-79
-37,-76
-33,-71
-11,-73
21,-77
61,-78
84,-80
110,-86
132,-82
145,-78
160,-76
175,-108
172,-211
155,-339
134,-467
112,-595
101,-652
94,-672
94,-681
100,-689
105,-691
103,-695
83,-697
67,-690
60,-677
74,-659
105,-637
136,-622
149,-609
114,-580
49,-523
-8,-448
-39,-364
-55,-292
-64,-237
-73,-194
-79,-154
-92,-119
-98,-58
-91,-23
-84,3
-80,18
-67,17
-51,22
-42,17
-59,23
-91,20
-95,23
-79,21
-78,23
-91,29
-110,28
-118,33
-119,32
-113,36
-98,35
-88,40
-83,49
-84,52
-93,55
-105,56
-104,57
-87,53
-72,55
-59,62
-67,68
-97,69
-127,73
-137,73
-139,70
-139,72
-126,77
-110,87
-100,89
-99,96
-115,105
-131,109
-132,120
-121,116
-114,117
-116,124
-127,127
-129,134
-123,139
-119,147
-130,151
-140,159
-141,168
-131,173
-115,174
-100,176
-90,179
-96,188
-117,187
-134,192
-137,192
-130,195
-127,190
-127,193
-131,193
-132,187
-126,196
-126,194
-122,194
-110,186
-104,181
-88,174
-64,166
-43,155
-50,148
-82,135
-110,125
-109,119
-84,98
-59,87
-44,72
-53,58
-78,50
-103,39
-107,27
-94,11
-66,1
-57,-4
-67,-11
-85,-13
-91,-18
-90,-32
-101,-41
-108,-39
-96,-48
-80,-48
-72,-45
-79,-48
-85,-49
-76,-50
-62,-52
-67,-52
-99,-49
-110,-44
-106,-47
-96,-45
-92,-49
-88,-48
-84,-45
-76,-43
-71,-44
-77,-47
-98,-41
-113,-45
-105,-44
-89,-44
-71,-46
-48,-46
-40,-44
-59,-43
-99,-47
-121,-49
-115,-49
-101,-56
-87,-54
-73,-49
-72,-51
-83,-49
-81,-49
-72,-53
-72,-54
-77,-59
-73,-59
-76,-58
-75,-58
-80,-58
-69,-58
-61,-62
-54,-67
-56,-66
-69,-58
-94,-63
-106,-59
-101,-62
-81,-67
-62,-70
-61,-68
-77,-70
-83,-69
-80,-65
-70,-64
-63,-70
-63,-69
-48,-69
-37,-68
-40,-63
-58,-63
-71,-58
-73,-61
-59,-59
-37,-61
-20,-62
-20,-59
-37,-54
-52,-49
-47,-49
-40,-51
-32,-52
-32,-49
-45,-46
-54,-51
-55,-58
-52,-70
-53,-67
-46,-68
-34,-68
-34,-73
-47,-76
-60,-79
-68,-83
-75,-82
-87,-86
-89,-88
-84,-86
-75,-77
-64,-72
-61,-71
-69,-71
-80,-72
-78,-73
-64,-75
-53,-80
-60,-81
-72,-81
-88,-76
-92,-74
-95,-74
-85,-77
-74,-80
-62,-76
-66,-69
-74,-70
-78,-67
-72,-70
-54,-74
-39,-73
-31,-72
-16,-74
6,-75
45,-79
98,-79
139,-74
157,-62
150,-57
149,-101
155,-202
150,-330
132,-458
109,-586
96,-650
87,-677
86,-686
79,-689
81,-692
79,-695
77,-695
62,-685
40,-663
48,-632
73,-609
101,-582
101,-561
60,-522
4,-459
-40,-391
-56,-318
-54,-257
-51,-206
-44,-173
-51,-135
-72,-94
-81,-53
-87,-22
-89,2
-84,9
-68,12
-53,12
-52,7
-57,12
-65,19
-62,20
-50,24
-55,21
-69,21
-71,23
-68,23
-60,24
-69,25
-72,26
-76,35
-88,37
-95,39
-92,38
-88,45
-83,46
-84,48
-87,51
-91,52
-85,56
-80,61
-82,63
-79,66
-80,72
-81,70
-84,72
-81,79
-82,81
-74,92
-69,97
-59,102
-50,107
-53,104
-67,113
-72,116
-77,121
-69,128
-91,130
-117,140
-128,149
-124,150
-121,153
-117,154
-111,161
-108,169
-100,176
-90,179
-93,186
-95,187
-93,189
-89,190
-86,194
-84,194
-67,193
-58,192
-48,192
-46,188
-47,190
-57,185
-79,178
-102,171
-108,160
-92,147
-68,144
-58,137
-55,131
-53,119
-55,107
-57,94
-55,76
-46,61
-46,51
-53,41
-60,30
-59,19
-51,10
-35,0
-36,-6
-47,-15
-51,-25
-52,-35
-43,-38
-42,-43
-45,-44
-50,-46
-55,-46
-46,-49
-44,-52
-32,-50
-31,-55
-42,-53
-60,-52
-66,-53
-68,-53
-63,-52
-59,-50
-53,-53
-52,-50
-56,-46
-58,-46
-56,-44
-56,-40
-57,-40
-49,-46
-39,-46
-24,-46
-18,-45
-42,-49
-73,-43
-82,-48
-69,-51
-51,-52
-41,-52
-40,-52
-51,-56
-57,-53
-53,-51
-45,-55
-44,-56
-39,-60
-43,-57
-47,-59
-49,-62
-58,-63
-58,-64
-47,-67
-35,-64
-33,-64
-31,-62
-38,-60
-38,-62
-30,-65
-24,-65
-24,-71
-29,-68
-30,-68
-32,-69
-43,-69
-56,-71
-59,-73
-48,-76
-38,-71
-43,-74
-52,-74
-47,-72
-36,-70
-31,-65
-30,-71
-32,-65
-27,-64
-23,-69
-10,-64
-6,-61
-10,-57
-8,-53
5,-44
19,-43
21,-44
7,-48
-4,-53
-7,-55
-3,-58
-10,-57
-21,-65
-21,-69
-25,-70
-34,-70
-34,-73
-30,-73
-35,-83
-39,-84
-45,-83
-50,-83
-54,-84
-51,-79
-40,-79
-34,-76
-23,-76
-18,-77
-24,-79
-48,-78
-60,-75
-52,-78
-37,-80
-30,-77
-22,-82
-16,-82
-24,-77
-47,-75
-56,-79
-55,-84
-45,-78
-34,-79
-23,-79
-12,-77
-16,-78
-23,-80
-26,-82
-18,-78
0,-83
18,-84
44,-81
72,-84
107,-78
145,-75
167,-70
173,-108
168,-217
156,-345
145,-473
131,-601
110,-669
97,-687
95,-694
99,-699
101,-702
97,-709
98,-706
94,-701
97,-683
96,-661
109,-633
118,-619
128,-606
123,-576
87,-511
41,-426
-5,-336
-36,-260
-41,-213
-41,-175
-39,-138
-30,-100
-22,-63
-18,-23
-27,3
-39,19
-36,21
-25,19
-20,17
-19,20
-20,27
-12,23
2,27
-1,22
-24,26
-49,30
-58,30
-48,33
-43,35
-40,37
-46,41
-42,45
-39,49
-41,43
-46,46
-47,53
-35,54
-32,62
-31,67
-45,67
-48,69
-47,72
-39,71
-37,80
-37,82
-31,89
-29,90
-18,99
-8,99
-13,102
-42,108
-87,109
-104,111
-89,119
-76,126
-67,135
-73,139
-77,153
-77,159
-74,159
-64,169
-59,171
-60,174
-54,180
-55,187
-45,190
-25,194
-8,196
-15,198
-40,198
-79,200
-102,202
-108,201
-95,202
-81,203
-74,206
-65,207
-60,209
-61,204
-54,196
-42,189
-33,180
-32,167
-41,161
-49,150
-42,136
-23,124
-3,105
3,92
-10,78
-42,68
-64,57
-71,43
-64,27
-54,12
-35,3
-19,-2
-16,-4
-32,-11
-45,-20
-48,-27
-46,-34
-39,-42
-25,-45
-18,-47
-21,-45
-22,-47
-26,-47
-35,-48
-51,-52
-74,-52
-83,-51
-73,-55
-57,-52
-52,-51
-58,-43
-58,-42
-56,-35
-62,-35
-59,-43
-53,-43
-45,-40
-33,-43
-27,-46
-30,-43
-44,-48
-51,-45
-52,-44
-59,-50
-61,-50
-67,-53
-68,-51
-61,-50
-52,-53
-50,-51
-59,-53
-66,-56
-77,-53
-75,-58
-73,-62
-69,-59
-66,-61
-63,-58
-53,-57
-36,-56
-14,-55
-11,-59
-30,-62
-58,-63
-69,-67
-65,-69
-43,-70
-38,-74
-49,-71
-69,-66
-74,-64
-71,-64
-66,-63
-67,-68
-59,-72
-55,-72
-45,-67
-31,-62
-19,-63
-5,-62
-8,-64
-15,-66
-29,-70
-47,-72
-44,-71
-42,-65
-29,-59
-28,-48
-28,-45
-30,-44
-16,-43
0,-47
8,-52
-10,-53
-36,-53
-54,-56
-55,-65
-42,-62
-35,-71
-36,-69
-41,-69
-52,-71
-63,-76
-67,-79
-67,-80
-64,-80
-61,-77
-56,-74
-48,-74
-53,-73
-53,-73
-50,-74
-54,-73
-56,-73
-57,-77
-51,-79
-46,-75
-35,-69
-5,-72
21,-70
10,-73
-36,-77
-95,-80
-118,-77
-106,-79
-85,-83
-57,-85
-42,-81
-38,-76
-37,-72
-39,-68
-16,-70
26,-73
64,-74
87,-80
105,-81
109,-74
122,-67
135,-88
146,-164
140,-292
125,-420
95,-548
73,-649
68,-685
77,-700
81,-703
84,-708
83,-715
73,-717
64,-712
56,-691
65,-656
82,-622
98,-598
91,-581
74,-552
56,-499
46,-431
31,-348
5,-277
-33,-225
-60,-185
-67,-150
-70,-119
-77,-79
-71,-37
-74,-10
-64,8
-62,13
-60,16
-61,17
-61,22
-55,22
-54,22
-40,25
-40,30
-42,31
-51,30
-54,33
-45,32
-30,34
-11,36
1,33
-8,35
-40,36
-76,42
-101,45
-101,45
-87,42
-67,47
-51,54
-43,64
-46,74
-55,71
-63,71
-62,79
-63,79
-61,79
-60,81
-48,88
-29,93
-22,95
-40,102
-79,103
-106,115
-98,111
-79,117
-57,122
-57,129
-62,139
-73,145
-80,152
-75,153
-69,159
-62,164
-57,169
-73,176
-91,180
-102,181
-87,183
-64,184
-52,186
-52,190
-64,192
-71,195
-64,197
-57,196
-63,189
-68,186
-77,188
-69,183
-57,177
-45,176
-38,166
-40,158
-40,148
-29,138
-8,127
-1,107
-15,99
-35,87
-48,76
-56,65
-50,52
-39,38
-29,27
-29,15
-33,6
-39,0
-54,-6
-59,-17
-59,-25
-52,-30
-43,-35
-34,-37
-33,-38
-36,-44
-37,-40
-37,-45
-35,-43
-31,-44
-26,-48
-16,-49
-20,-48
-17,-48
-12,-47
-2,-43
3,-43
-22,-39
-48,-41
-66,-41
-67,-43
-63,-49
-63,-47
-60,-47
-56,-41
-52,-34
-50,-33
-47,-33
-45,-37
-44,-42
-41,-44
-26,-45
-14,-51
-13,-52
-19,-50
-32,-51
-30,-54
-12,-54
5,-55
3,-58
-24,-60
-60,-58
-84,-64
-71,-63
-46,-69
-37,-69
-39,-65
-33,-64
-29,-58
-20,-60
-20,-60
-24,-63
-24,-68
-24,-69
-20,-70
-28,-69
-39,-71
-41,-72
-34,-71
-13,-71
-11,-74
-16,-72
-16,-70
-16,-72
-17,-69
-22,-64
-20,-62
-9,-58
4,-61
17,-55
19,-51
1,-45
-23,-43
-31,-50
-20,-54
-9,-60
0,-63
7,-68
11,-68
4,-65
-8,-71
-19,-74
-16,-76
-11,-83
-9,-82
-17,-83
-31,-87
-41,-81
-40,-85
-31,-83
-29,-76
-29,-75
-31,-74
-30,-72
-25,-78
-28,-81
-44,-81
-58,-79
-62,-81
-55,-78
-40,-82
-29,-80
-25,-77
-25,-75
-25,-77
-22,-75
-6,-78
16,-80
39,-84
44,-81
23,-84
-8,-84
-32,-84
-37,-92
-13,-96
25,-95
69,-91
115,-86
151,-71
166,-66
176,-104
176,-209
171,-337
161,-465
141,-593
129,-669
127,-696
133,-709
129,-714
125,-718
108,-722
87,-721
73,-712
69,-696
86,-666
107,-636
125,-617
125,-598
100,-553
60,-487
15,-405
-16,-321
-27,-260
-26,-214
-23,-182
-31,-139
-38,-102
-42,-60
-40,-26
-37,-6
-31,2
-32,7
-22,5
-14,6
-10,9
-20,15
-28,14
-13,16
9,16
14,15
-9,18
-36,19
-46,25
-35,28
-26,26
-30,26
-38,28
-48,29
-49,34
-47,39
-45,39
-44,45
-40,51
-33,56
-25,60
-30,61
-36,62
-39,65
-36,67
-28,70
-18,73
-12,79
-10,86
-26,91
-46,94
-66,98
-65,97
-50,103
-24,110
-22,112
-39,127
-67,137
-80,140
-75,144
-68,145
-68,150
-66,158
-63,163
-56,165
-55,175
-46,175
-41,182
-32,183
-20,186
-29,190
-40,187
-47,194
-48,189
-47,189
-29,189
-23,189
-30,191
-47,188
-58,186
-60,182
-56,172
-47,164
-35,157
-18,149
-3,140
7,128
5,113
-6,104
-12,86
-24,69
-22,58
-7,41
10,33
19,25
23,12
18,4
15,-4
4,-16
-15,-28
-27,-37
-33,-43
-26,-40
-15,-47
0,-46
2,-45
1,-48
-3,-54
-2,-56
-2,-56
1,-58
12,-59
25,-57
27,-56
23,-50
19,-52
18,-54
12,-56
-10,-56
-36,-54
-49,-52
-42,-55
-22,-48
-8,-54
-6,-47
-12,-45
-16,-47
-15,-45
-12,-47
-7,-52
4,-50
13,-48
10,-51
3,-57
0,-57
-4,-60
1,-61
-3,-67
3,-59
28,-63
49,-65
42,-61
15,-67
-12,-69
-29,-71
-32,-71
-14,-71
-1,-70
-3,-75
-13,-72
-14,-73
-11,-72
-13,-76
-7,-77
1,-73
10,-74
21,-73
13,-73
-1,-73
-9,-73
1,-76
13,-81
28,-81
19,-82
-3,-76
-22,-77
-25,-77
-13,-78
-4,-80
3,-80
16,-75
24,-72
23,-67
25,-65
36,-57
48,-59
53,-59
46,-59
36,-63
28,-66
30,-66
24,-67
17,-71
13,-79
17,-82
20,-80
15,-87
5,-90
-9,-96
-19,-93
-24,-95
-15,-97
-10,-99
-10,-98
-14,-93
-25,-90
-34,-89
-31,-88
-29,-89
-29,-91
-24,-93
-24,-87
-15,-85
0,-88
10,-87
16,-86
13,-85
3,-88
-13,-87
-29,-88
-27,-91
-19,-90
-22,-92
-47,-94
-54,-89
-46,-84
-29,-83
-13,-87
2,-88
36,-94
69,-86
108,-89
145,-82
164,-73
172,-73
172,-124
167,-242
153,-370
136,-498
124,-626
114,-682
99,-699
83,-706
78,-713
76,-723
71,-722
66,-723
57,-717
53,-692
69,-665
93,-639
104,-626
96,-609
73,-576
44,-513
13,-431
-3,-352
-19,-279
-30,-224
-37,-184
-43,-145
-42,-107
-41,-63
-39,-31
-35,-7
-36,9
-41,12
-47,6
-57,8
-60,12
-60,15
-56,14
-42,16
-23,18
-31,19
-56,21
-69,27
-60,30
-43,29
-38,34
-54,37
-71,39
-83,40
-72,42
-66,44
-61,48
-60,53
-59,62
-62,61
-59,64
-53,64
-58,63
-53,65
-49,70
-45,76
-52,79
-57,88
-67,91
-72,93
-70,97
-65,99
-59,103
-63,113
-78,120
-93,127
-96,133
-87,138
-84,140
-83,147
-83,150
-84,158
-86,164
-85,169
-85,171
-80,182
-73,182
-76,186
-72,190
-67,188
-67,191
-67,188
-58,192
-50,191
-35,197
-24,195
-26,194
-47,191
-63,187
-79,184
-82,177
-76,172
-77,167
-84,158
-86,153
-75,142
-64,135
-55,124
-44,110
-33,99
-31,88
-39,71
-47,58
-46,48
-40,29
-39,11
-44,2
-52,-4
-55,-12
-45,-18
-40,-29
-29,-35
-34,-36
-47,-40
-57,-39
-58,-40
-57,-52
-50,-50
-45,-55
-42,-54
-39,-54
-30,-53
-22,-53
-25,-48
-36,-50
-47,-52
-55,-50
-55,-50
-42,-50
-35,-46
-42,-45
-53,-47
-60,-48
-61,-46
-58,-46
-58,-44
-60,-44
-56,-38
-48,-45
-35,-41
-23,-47
-20,-50
-28,-49
-43,-50
-54,-52
-57,-52
-58,-59
-59,-56
-55,-57
-55,-59
-54,-57
-56,-60
-51,-54
-51,-60
-53,-59
-51,-57
-40,-61
-33,-64
-35,-63
-43,-69
-36,-67
-25,-72
-21,-69
-21,-72
-29,-70
-34,-69
-38,-70
-34,-68
-34,-73
-32,-72
-32,-71
-31,-68
-25,-63
-27,-61
-24,-56
-17,-52
-14,-47
-10,-50
-6,-54
-15,-52
-26,-53
-29,-53
-20,-63
-20,-64
-23,-75
-28,-72
-24,-77
-13,-81
-8,-87
-23,-89
-48,-90
-69,-86
-72,-88
-67,-93
-58,-88
-53,-92
-45,-84
-49,-82
-46,-83
-40,-82
-28,-86
-17,-81
-26,-84
-46,-88
-69,-86
-79,-85
-70,-93
-48,-91
-31,-91
-23,-90
-40,-81
-61,-81
-70,-80
-71,-86
-69,-87
-62,-88
-44,-87
-27,-87
-10,-87
7,-83
22,-80
43,-87
73,-88
114,-90
144,-86
159,-81
164,-104
161,-188
151,-316
131,-444
109,-572
100,-661
106,-692
121,-704
125,-713
114,-722
90,-723
64,-721
41,-711
33,-684
41,-651
67,-623
94,-596
98,-569
85,-535
46,-477
1,-407
-30,-335
-41,-277
-41,-227
-40,-194
-40,-166
-49,-127
-58,-88
-58,-52
-57,-30
-54,-16
-47,-11
-49,-8
-39,-3
-37,-5
-43,2
-51,-1
-59,0
-56,-1
-48,1
-42,6
-45,11
-55,11
-61,18
-55,17
-40,8
-29,11
-45,19
-70,23
-88,25
-84,27
-67,30
-55,31
-45,34
-55,42
-66,41
-71,44
-64,47
-63,54
-62,54
-66,57
-70,61
-75,63
-81,70
-80,74
-79,77
-71,85
-77,89
-82,98
-85,104
-77,113
-70,115
-61,116
-56,122
-57,127
-66,135
-68,139
-71,147
-76,148
-88,150
-90,153
-101,158
-104,161
-98,163
-92,169
-85,173
-79,178
-72,180
-71,185
-64,184
-60,180
-56,173
-57,170
-52,167
-47,163
-35,157
-25,146
-19,144
-28,131
-37,119
-51,110
-54,99
-44,83
-33,76
-30,65
-32,52
-32,38
-39,29
-49,14
-53,6
-51,-5
-44,-15
-32,-23
-22,-23
-22,-31
-29,-39
-40,-45
-45,-48
-46,-51
-42,-51
-30,-59
-16,-57
-16,-56
-31,-55
-42,-58
-50,-63
-48,-62
-43,-65
-42,-62
-39,-60
-39,-56
-32,-52
-18,-49
-7,-54
-4,-54
-26,-55
-60,-56
-85,-54
-88,-57
-76,-59
-61,-54
-51,-48
-41,-47
-32,-55
-31,-50
-40,-53
-43,-55
-50,-60
-46,-57
-35,-61
-24,-61
-19,-58
-16,-63
-6,-66
-2,-68
-17,-67
-38,-72
-62,-72
-69,-73
-60,-70
-48,-74
-41,-73
-48,-74
-50,-77
-50,-70
-48,-69
-42,-71
-38,-73
-32,-70
-31,-74
-31,-72
-34,-75
-34,-75
-21,-77
-8,-77
4,-77
11,-74
11,-70
-9,-71
-26,-72
-29,-69
-13,-67
4,-61
23,-60
20,-55
-6,-55
-26,-55
-31,-64
-27,-64
-22,-69
-15,-71
-14,-70
-17,-73
-15,-70
-20,-79
-20,-86
-9,-86
-5,-92
2,-95
3,-97
2,-96
-12,-97
-36,-94
-43,-92
-55,-92
-67,-92
-76,-95
-79,-95
-76,-92
-67,-92
-58,-90
-54,-88
-55,-85
-54,-85
-47,-87
-40,-86
-32,-89
-24,-90
-15,-87
-1,-85
-11,-89
-32,-86
-54,-88
-52,-91
-40,-97
-32,-96
-27,-95
-19,-96
-7,-92
15,-91
57,-98
105,-95
146,-91
164,-81
171,-94
167,-172
169,-300
164,-428
150,-556
132,-652
114,-683
113,-702
125,-709
143,-711
142,-718
124,-717
93,-722
67,-715
54,-695
67,-666
97,-643
118,-622
111,-604
82,-568
43,-497
0,-416
-24,-339
-35,-272
-35,-223
-43,-183
-49,-150
-41,-110
-35,-68
-31,-38
-41,-17
-59,-8
-75,-9
-87,-11
-91,-10
-92,-8
-84,-1
-77,5
-76,6
-78,9
-74,9
-69,13
-72,15
-71,21
-72,20
-71,20
-65,24
-53,23
-51,21
-63,26
-75,28
-78,33
-72,35
-73,37
-77,41
-86,46
-94,51
-94,51
-81,51
-79,52
-98,60
-121,67
-127,76
-117,79
-114,82
-109,83
-103,91
-101,97
-101,105
-104,109
-105,113
-113,117
-120,126
-126,126
-120,133
-107,138
-101,145
-98,151
-106,158
-120,160
-141,171
-155,171
-154,174
-137,175
-122,179
-119,192
-122,203
-120,211
-125,218
-121,223
-119,215
-106,194
-94,171
-86,162
-94,158
-113,152
-120,149
-120,146
-106,139
-84,130
-64,122
-52,114
-63,105
-78,91
-93,81
-109,63
-111,52
-112,41
-102,31
-92,24
-79,11
-74,0
-76,-5
-80,-15
-83,-20
-90,-27
-99,-28
-103,-32
-101,-35
-90,-37
-85,-40
-89,-46
-99,-45
-101,-43
-102,-45
-110,-44
-117,-44
-112,-49
-107,-48
-96,-46
-91,-41
-93,-41
-106,-40
-110,-38
-106,-38
-114,-40
-108,-39
-106,-41
-100,-38
-100,-43
-99,-36
-92,-34
-100,-35
-105,-35
-108,-40
-104,-42
-100,-47
-96,-46
-96,-48
-101,-46
-102,-45
-95,-50
-96,-52
-105,-56
-124,-56
-130,-57
-135,-56
-128,-56
-112,-55
-105,-58
-105,-52
-110,-52
-110,-52
-106,-59
-100,-59
-96,-61
-89,-60
-87,-63
-80,-64
-79,-62
-74,-64
-64,-64
-68,-68
-76,-66
-70,-60
-58,-58
-53,-52
-67,-51
-77,-50
-79,-48
-84,-52
-82,-48
-88,-55
-87,-53
-82,-52
-75,-51
-77,-55
-83,-58
-87,-60
-89,-64
-89,-73
-85,-74
-82,-78
-84,-84
-93,-80
-106,-81
-122,-82
-133,-76
-119,-82
-89,-79
-72,-79
-89,-77
-117,-75
-145,-78
-156,-75
-149,-82
-130,-82
-118,-77
-114,-78
-115,-74
-119,-78
-116,-78
-112,-79
-111,-83
-107,-80
-104,-80
-91,-80
-82,-78
-90,-80
-105,-85
-115,-82
-115,-86
-101,-84
-74,-87
-30,-86
18,-88
63,-85
93,-78
111,-72
123,-93
129,-177
127,-305
106,-433
78,-561
59,-657
57,-687
57,-705
51,-707
42,-714
29,-719
21,-718
7,-707
-4,-682
5,-645
22,-610
35,-589
36,-571
24,-542
1,-485
-22,-419
-55,-343
-89,-272
-106,-226
-104,-193
-109,-156
-117,-127
-120,-91
-123,-54
-126,-25
-139,-9
-133,-4
-120,-1
-111,-1
-111,1
-114,7
-120,9
-125,9
-126,7
-121,12
-114,11
-105,14
-99,16
-96,19
-110,17
-122,22
-140,20
-139,18
-133,20
-123,22
-118,25
-113,28
-108,35
-116,40
-125,41
-122,40
-120,43
-130,47
-145,51
-155,56
-149,62
-142,67
-138,68
-138,70
-134,74
-134,78
-136,92
-141,93
-144,98
-143,105
-148,115
-145,120
-139,120
-138,120
-138,123
-145,129
-157,138
-168,142
-164,148
-152,152
-130,155
-106,160
-109,163
-127,165
-144,169
-157,164
-159,165
-161,171
-150,170
-139,177
-132,174
-135,169
-140,165
-143,165
-140,161
-134,157
-134,149
-133,139
-128,129
-117,118
-103,110
-95,94
-90,83
-81,78
-85,65
-97,51
-106,40
-107,31
-110,13
-110,5
-107,0
-105,-5
-110,-12
-119,-16
-122,-25
-119,-31
-114,-41
-117,-43
-124,-46
-127,-43
-130,-47
-124,-44
-119,-45
-120,-39
-118,-39
-115,-40
-107,-45
-97,-49
-88,-45
-90,-46
-110,-46
-117,-44
-116,-43
-105,-44
-97,-46
-102,-46
-103,-40
-98,-38
-104,-39
-126,-43
-137,-46
-135,-48
-128,-46
-125,-43
-116,-42
-112,-45
-105,-46
-96,-46
-83,-50
-77,-44
-86,-46
-99,-50
-109,-51
-108,-50
-95,-57
-78,-63
-86,-62
-116,-62
-131,-62
-133,-61
-124,-64
-98,-62
-72,-67
-59,-62
-65,-59
-80,-60
-88,-61
-70,-63
-51,-64
-47,-60
-68,-57
-88,-60
-88,-51
-80,-53
-83,-50
-91,-52
-96,-52
-99,-48
-89,-49
-83,-53
-75,-61
-61,-64
-49,-69
-38,-71
-39,-77
-44,-75
-70,-77
-110,-81
-143,-81
-152,-80
-147,-85
-131,-86
-114,-83
-109,-85
-108,-74
-113,-75
-116,-73
-111,-78
-107,-79
-99,-77
-92,-79
-74,-77
-62,-81
-66,-82
-80,-81
-98,-84
-101,-80
-101,-84
-98,-88
-100,-85
-108,-83
-118,-87
-124,-86
-113,-86
-95,-85
-77,-84
-60,-83
-36,-91
10,-95
66,-97
104,-98
137,-107
157,-128
152,-179
131,-277
109,-388
93,-490
86,-564
87,-612
102,-644
118,-663
115,-667
91,-681
48,-676
21,-673
10,-663
21,-647
38,-628
56,-599
65,-574
68,-549
45,-512
5,-460
-36,-396
-67,-330
-82,-272
-94,-226
-100,-194
-93,-157
-82,-121
-86,-85
-105,-53
-128,-32
-132,-20
-125,-18
-115,-18
-112,-19
-111,-15
-97,-4
-81,-1
-77,3
-89,0
-110,7
-124,9
-133,7
-125,2
-111,5
-112,9
-125,15
-133,22
-123,29
-108,29
-96,27
-97,23
-104,28
-111,32
-107,38
-105,43
-105,43
-109,41
-112,49
-119,52
-127,59
-144,59
-155,57
-157,65
-159,73
-148,83
-136,91
-122,98
-118,101
-138,106
-147,111
-139,112
-124,116
-110,122
-110,134
-122,139
-143,144
-155,143
-158,154
-150,154
-144,155
-142,164
-144,168
-140,172
-147,178
-158,176
-160,175
-150,177
-138,177
-121,176
-102,183
-96,183
-103,181
-122,173
-140,166
-135,162
-115,152
-101,144
-105,136
-115,123
-122,114
-112,105
-97,95
-82,80
-73,74
-85,58
-101,39
-99,30
-79,13
-65,5
-62,-4
-73,-12
-88,-16
-95,-26
-95,-35
-94,-46
-96,-54
-98,-51
-102,-45
-102,-49
-99,-56
-95,-57
-89,-57
-84,-61
-85,-58
-91,-56
-98,-53
-90,-59
-78,-51
-56,-55
-51,-56
-63,-64
-86,-61
-100,-59
-108,-55
-115,-51
-117,-53
-111,-53
-99,-53
-85,-55
-76,-53
-79,-50
-88,-46
-99,-53
-100,-53
-97,-49
-80,-47
-60,-47
-45,-47
-50,-44
-66,-48
-75,-50
-85,-59
-96,-61
-108,-62
-123,-64
-126,-71
-110,-64
-99,-66
-91,-65
-85,-70
-75,-62
-56,-61
-36,-62
-37,-64
-63,-66
-82,-67
-66,-66
-31,-66
-19,-71
-44,-71
-86,-68
-114,-67
-111,-60
-86,-57
-60,-55
-46,-52
-50,-46
-61,-37
-72,-34
-65,-44
-63,-48
-58,-47
-58,-47
-61,-44
-57,-45
-51,-54
-39,-60
-18,-69
-19,-72
-43,-77
-87,-75
-112,-79
-130,-85
-136,-84
-136,-85
-132,-79
-116,-76
-114,-73
-110,-69
-101,-61
-90,-64
-83,-69
-86,-73
-103,-77
-115,-79
-105,-74
-95,-77
-90,-70
-100,-72
-125,-69
-134,-69
-132,-73
-117,-76
-106,-76
-103,-73
-113,-72
-116,-73
-115,-74
-100,-72
-74,-68
-55,-67
-30,-72
2,-78
50,-84
103,-84
125,-76
131,-82
116,-126
101,-242
95,-370
96,-498
99,-626
94,-671
65,-691
37,-703
13,-707
12,-712
15,-711
24,-707
9,-691
-9,-661
6,-630
41,-603
70,-583
60,-559
23,-517
-18,-456
-40,-383
-54,-312
-59,-255
-63,-213
-78,-177
-108,-133
-135,-100
-154,-59
-154,-25
-136,-7
-122,1
-126,5
-133,5
-136,4
-138,6
-135,11
-128,9
-126,18
-119,21
-112,21
-105,25
-87,27
-68,27
-55,29
-74,29
-118,36
-159,38
-168,36
-156,34
-138,39
-125,43
-130,47
-146,54
-156,50
-152,55
-145,61
-135,59
-138,69
-139,70
-132,74
-120,83
-131,91
-137,91
-126,91
-111,97
-114,101
-135,106
-162,112
-181,111
-183,110
-168,116
-150,121
-136,132
-144,143
-156,150
-157,159
-158,155
-154,156
-153,160
-150,163
-133,173
-116,179
-133,180
-146,183
-147,184
-147,179
-148,181
-144,182
-142,181
-143,176
-144,183
-132,187
-120,190
-114,190
-124,184
-121,173
-114,164
-115,152
-112,138
-107,121
-109,113
-124,103
-133,89
-128,77
-121,66
-115,54
-107,41
-96,32
-77,27
-69,13
-82,1
-104,-3
-103,-8
-99,-22
-97,-26
-102,-29
-110,-35
-122,-37
-125,-42
-123,-47
-118,-47
-116,-42
-111,-40
-105,-42
-105,-48
-96,-53
-90,-60
-95,-59
-105,-51
-106,-49
-97,-50
-79,-46
-92,-46
-118,-43
-134,-43
-136,-39
-131,-40
-120,-37
-111,-29
-102,-22
-95,-27
-98,-34
-111,-45
-117,-48
-111,-49
-104,-49
-96,-53
-91,-57
-88,-53
-88,-58
-89,-53
-90,-52
-79,-56
-81,-55
-94,-59
-95,-59
-91,-56
-87,-53
-96,-52
-106,-56
-104,-59
-99,-52
-78,-48
-65,-46
-54,-44
-58,-33
-61,-30
-59,-24
-62,-31
-59,-35
-48,-41
-49,-45
-46,-58
-46,-55
-59,-57
-73,-56
-73,-60
-70,-59
-62,-64
-63,-66
-70,-72
-85,-73
-85,-73
-97,-74
-115,-71
-127,-72
-124,-72
-122,-67
-110,-64
-91,-63
-83,-66
-81,-64
-94,-65
-101,-63
-99,-68
-84,-68
-65,-73
-51,-69
-55,-68
-78,-71
-118,-72
-133,-73
-117,-79
-93,-81
-84,-76
-93,-73
-100,-70
-100,-70
-83,-70
-57,-70
-28,-73
-4,-71
0,-74
2,-82
9,-85
51,-83
100,-78
135,-81
147,-101
162,-177
173,-305
156,-433
113,-561
74,-649
72,-680
90,-704
117,-707
126,-711
125,-715
116,-707
95,-685
61,-650
36,-617
41,-601
69,-591
91,-571
73,-540
15,-473
-46,-395
-83,-323
-78,-261
-58,-213
-52,-182
-77,-151
-108,-116
-115,-78
-116,-39
-109,-11
-105,-2
-93,5
-76,3
-64,3
-68,3
-91,5
-113,12
-117,20
-102,25
-74,30
-63,32
-65,34
-83,19
-99,11
-113,5
-123,0
-131,4
-135,15
-123,24
-103,39
-92,40
-101,39
-114,39
-128,47
-132,49
-111,50
-87,59
-82,63
-107,67
-130,72
-143,71
-136,71
-128,72
-123,77
-115,88
-98,95
-82,100
-76,104
-85,107
-101,114
-120,114
-141,118
-164,119
-174,125
-173,133
-165,142
-155,152
-148,165
-131,170
-126,171
-128,175
-131,175
-135,175
-133,181
-130,180
-125,178
-125,182
-111,179
-108,173
-92,176
-74,179
-69,181
-87,177
-111,175
-120,167
-111,156
-113,143
-119,136
-125,127
-122,117
-120,106
-119,96
-108,81
-96,70
-87,59
-79,51
-78,45
-76,33
-77,20
-75,5
-70,-12
-71,-24
-58,-24
-42,-32
-30,-35
-32,-46
-57,-50
-96,-52
-116,-58
-106,-57
-97,-60
-96,-62
-104,-60
-109,-59
-104,-57
-103,-52
-99,-52
-103,-51
-94,-51
-89,-49
-87,-48
-83,-46
-79,-48
-80,-48
-75,-47
-72,-53
-56,-49
-40,-52
-32,-53
-46,-49
-68,-49
-87,-49
-89,-63
-100,-66
-106,-63
-102,-63
-94,-60
-87,-60
-84,-57
-88,-60
-84,-61
-82,-61
-76,-64
-77,-68
-81,-69
-86,-64
-87,-63
-81,-66
-62,-68
-32,-69
-3,-67
8,-76
-37,-75
-91,-70
-116,-72
-105,-77
-79,-78
-56,-79
-40,-69
-36,-66
-43,-59
-43,-52
-43,-52
-33,-50
-28,-50
-26,-50
-27,-46
-29,-57
-31,-58
-31,-63
-33,-65
-30,-75
-27,-74
-15,-73
8,-72
42,-73
41,-77
-2,-83
-60,-89
-107,-89
-127,-94
-128,-99
-115,-97
-101,-91
-90,-77
-81,-71
-78,-72
-80,-75
-72,-76
-68,-76
-64,-74
-64,-80
-60,-83
-41,-85
-22,-86
-14,-84
-34,-86
-70,-83
-99,-83
-109,-92
-106,-85
-91,-87
-79,-85
-62,-78
-44,-74
-36,-76
-27,-79
-17,-78
6,-82
51,-87
97,-84
136,-79
159,-76
170,-88
170,-157
168,-285
160,-413
141,-541
125,-652
115,-690
110,-704
118,-714
126,-720
130,-722
127,-724
116,-720
97,-711
77,-691
78,-662
100,-638
123,-625
129,-611
110,-571
69,-501
17,-414
-27,-329
-52,-257
-60,-209
-59,-174
-66,-139
-73,-103
-74,-57
-73,-22
-68,0
-72,7
-82,11
-76,14
-72,16
-64,15
-46,15
-44,16
-50,18
-65,20
-76,22
-88,24
-104,26
-102,29
-102,32
-95,34
-87,39
-88,42
-91,42
-94,41
-95,46
-95,50
-93,54
-91,57
-88,61
-93,65
-94,70
-88,72
-82,79
-86,83
-102,85
-114,85
-111,91
-88,90
-79,97
-87,106
-119,110
-153,119
-166,121
-161,126
-157,128
-147,137
-137,145
-132,155
-131,160
-132,163
-131,164
-128,172
-124,175
-126,182
-126,186
-128,193
-130,192
-128,192
-123,196
-127,198
-134,202
-137,195
-136,200
-128,199
-125,198
-123,200
-124,196
-128,198
-132,194
-127,184
-120,174
-107,165
-100,161
-107,145
-108,131
-113,119
-103,105
-102,90
-97,78
-94,69
-88,56
-87,47
-88,34
-90,20
-91,4
-88,-4
-86,-14
-86,-22
-100,-23
-114,-35
-112,-42
-113,-52
-108,-57
-103,-58
-105,-54
-112,-54
-113,-53
-110,-57
-106,-51
-102,-52
-94,-51
-93,-48
-96,-50
-104,-49
-109,-54
-115,-50
-112,-47
-107,-49
-100,-46
-89,-49
-88,-50
-99,-54
-115,-51
-121,-47
-122,-42
-116,-43
-113,-44
-105,-45
-106,-49
-110,-48
-110,-54
-114,-59
-109,-66
-107,-67
-106,-66
-106,-63
-103,-67
-100,-65
-90,-66
-85,-64
-78,-67
-73,-67
-72,-68
-73,-63
-69,-64
-73,-58
-81,-59
-81,-61
-78,-63
-78,-57
-74,-50
-70,-53
-68,-48
-70,-43
-68,-39
-68,-48
-66,-56
-69,-68
-68,-76
-76,-78
-80,-84
-80,-84
-84,-86
-90,-83
-93,-86
-92,-88
-84,-91
-84,-93
-86,-91
-87,-84
-100,-78
-120,-75
-131,-76
-128,-85
-120,-98
-109,-101
-114,-98
-125,-94
-128,-91
-124,-80
-120,-82
-122,-88
-118,-94
-114,-95
-112,-103
-109,-96
-105,-97
-105,-100
-104,-94
-100,-93
-94,-93
-84,-91
-71,-94
-49,-92
-19,-93
5,-98
19,-110
38,-108
64,-106
95,-100
118,-102
121,-137
112,-222
92,-345
76,-473
58,-571
47,-635
42,-668
39,-686
48,-698
55,-705
51,-709
43,-708
22,-700
9,-675
6,-643
21,-612
36,-588
51,-560
29,-528
-7,-470
-39,-408
-63,-343
-80,-287
-84,-244
-78,-208
-85,-166
-92,-132
-100,-91
-110,-52
-118,-33
-114,-12
-113,2
-114,0
-112,-12
-113,-24
-111,-28
-112,-23
-114,-18
-115,-8
-115,-6
-110,-3
-113,0
-112,3
-113,8
-115,6
-115,11
-116,15
-117,17
-120,19
-119,22
-127,26
-125,26
-120,31
-121,40
-117,43
-120,42
-123,43
-124,40
-125,42
-128,45
-131,45
-132,48
-137,54
-129,54
-129,60
-131,66
-132,76
-136,75
-135,79
-139,87
-137,92
-137,98
-142,103
-139,109
-139,113
-140,115
-146,117
-151,123
-152,128
-151,139
-149,134
-143,139
-143,141
-135,139
-141,142
-142,138
-141,144
-139,145
-141,148
-140,144
-138,144
-128,146
-127,140
-122,133
-124,129
-122,121
-121,117
-115,110
-113,104
-112,89
-109,74
-112,63
-108,58
-107,47
-105,40
-109,27
-110,21
-110,9
-88,-8
-99,-12
-99,-23
-106,-35
-106,-37
-106,-39
-110,-44
-109,-45
-112,-49
-110,-55
-105,-58
-108,-56
-109,-60
-115,-64
-118,-58
-117,-58
-116,-60
-115,-61
-110,-56
-105,-56
-109,-55
-109,-58
-111,-59
-112,-58
-110,-54
-110,-52
-111,-50
-105,-54
-106,-56
-110,-56
-104,-64
-111,-61
-107,-58
-107,-63
-110,-61
-106,-62
-106,-65
-99,-64
-98,-64
-98,-71
-105,-71
-103,-69
-95,-70
-92,-71
-88,-67
-88,-69
-82,-75
-78,-75
-74,-72
-68,-69
-71,-66
-67,-59
-64,-59
-63,-56
-59,-59
-56,-56
-59,-58
-61,-60
-62,-61
-73,-63
-74,-67
-75,-68
-72,-72
-77,-76
-80,-82
-77,-81
-81,-85
-83,-90
-89,-90
-94,-95
-96,-95
-96,-89
-99,-87
-102,-89
-103,-89
-101,-89
-101,-84
-98,-86
-104,-91
-105,-85
-102,-89
-98,-87
-99,-83
-96,-88
-94,-90
-97,-86
-100,-87
-101,-89
-99,-87
-98,-86
-96,-91
-92,-86
-91,-89
-92,-88
-91,-88
-90,-94
-79,-88
-64,-90
-50,-88
-23,-89
19,-99
70,-97
113,-92
146,-90
169,-88
179,-120
185,-218
173,-346
161,-474
135,-596
123,-652
114,-680
114,-692
120,-697
113,-704
103,-698
77,-683
53,-656
36,-626
51,-584
75,-559
90,-538
84,-511
47,-471
-2,-401
-41,-330
-68,-277
-70,-236
-70,-206
-75,-177
-82,-143
-96,-109
-101,-74
-100,-45
-96,-28
-98,-24
-92,-25
-93,-27
-93,-17
-93,-14
-94,-14
-97,-16
-96,-10
-96,-5
-96,0
-93,-2
-89,-4
-89,0
-89,0
-90,1
-92,3
-92,6
-95,12
-95,16
-95,11
-94,17
-99,15
-97,18
-95,26
-99,27
-101,28
-97,32
-103,37
-102,42
-101,47
-99,49
-101,51
-103,53
-104,57
-108,64
-109,69
-109,76
-109,78
-111,83
-102,89
-107,94
-110,97
-115,104
-118,107
-113,114
-115,121
-112,122
-112,125
-112,127
-110,129
-115,133
-115,137
-114,144
-112,144
-112,144
-112,151
-111,148
-104,147
-104,140
-103,144
-102,145
-100,140
-99,136
-92,134
-88,127
-83,123
-75,113
-75,105
-71,98
-70,85
-70,78
-71,65
-67,54
-61,39
-59,27
-54,21
-52,8
-53,-4
-55,-14
-54,-24
-54,-30
-59,-32
-59,-43
-55,-45
-54,-53
-57,-58
-54,-60
-58,-59
-60,-57
-61,-59
-57,-60
-56,-60
-57,-64
-56,-63
-56,-62
-62,-63
-58,-59
-63,-60
-62,-60
-60,-62
-60,-51
-53,-60
-57,-56
-54,-59
-57,-56
-57,-59
-58,-59
-59,-60
-61,-58
-55,-54
-56,-58
-54,-59
-55,-61
-52,-64
-54,-59
-51,-64
-55,-60
-54,-60
-56,-72
-55,-67
-49,-72
-52,-69
-51,-73
-52,-72
-49,-69
-49,-74
-51,-74
-47,-74
-45,-68
-40,-69
-31,-73
-32,-78
-32,-78
-28,-76
-24,-70
-22,-68
-18,-61
-13,-61
-14,-63
-6,-60
-6,-53
-9,-54
-16,-56
-16,-58
-20,-59
-22,-60
-23,-66
-27,-76
-27,-78
-33,-80
-33,-83
-40,-85
-44,-85
-43,-90
-51,-87
-55,-90
-58,-91
-60,-95
-65,-93
-63,-97
-67,-93
-72,-87
-70,-88
-69,-89
-72,-88
-67,-86
-66,-86
-67,-89
-64,-90
-73,-88
-69,-91
-64,-86
-63,-91
-64,-87
-62,-88
-63,-89
-64,-91
-63,-90
-61,-92
-57,-89
-52,-89
-46,-88
-36,-85
-16,-88
9,-89
43,-94
88,-93
120,-89
150,-80
165,-85
175,-119
173,-225
168,-353
153,-481
141,-600
130,-656
125,-672
121,-685
126,-692
132,-695
125,-696
115,-690
97,-682
81,-657
83,-625
104,-597
128,-587
132,-563
116,-535
71,-474
20,-397
-16,-321
-36,-260
-43,-216
-44,-181
-47,-151
-61,-122
-74,-83
-75,-45
-75,-22
-71,-8
-69,-5
-73,-8
-78,-1
-81,0
-80,5
-80,4
-80,6
-80,9
-76,9
-76,10
-77,15
-81,14
-81,15
-82,19
-86,21
-87,24
-83,24
-86,29
-85,29
-85,35
-86,31
-89,38
-91,38
-95,41
-95,45
-97,51
-97,56
-96,56
-96,59
-97,62
-93,68
-100,75
-102,73
-106,83
-107,85
-107,90
-107,90
-106,95
-107,101
-109,108
-112,113
-113,113
-114,126
-111,129
-106,135
-107,140
-108,142
-112,144
-108,149
-112,152
-111,154
-112,159
-109,158
-107,163
-106,164
-103,168
-103,168
-102,164
-98,166
-98,166
-98,164
-94,161
-90,158
-84,158
-80,145
-74,141
-75,130
-72,126
-68,115
-64,103
-65,95
-56,84
-55,73
-51,58
-52,43
-52,37
-51,29
-56,21
-55,10
-54,1
-50,-8
-53,-15
-51,-22
-57,-29
-55,-31
-56,-37
-63,-38
-61,-37
-62,-41
-64,-41
-63,-45
-64,-48
-62,-43
-63,-44
-69,-46
-69,-42
-70,-41
-75,-42
-73,-39
-72,-43
-71,-42
-76,-38
-73,-40
-75,-38
-76,-37
-78,-34
-75,-38
-76,-38
-75,-40
-73,-36
-69,-40
-77,-42
-75,-43
-79,-44
-78,-43
-77,-46
-76,-43
-74,-46
-73,-48
-75,-50
-71,-53
-74,-52
-79,-54
-80,-59
-78,-52
-76,-51
-72,-52
-64,-54
-66,-54
-60,-51
-56,-59
-56,-56
-49,-57
-43,-51
-43,-48
-38,-46
-33,-46
-29,-39
-30,-39
-26,-37
-25,-37
-32,-34
-35,-37
-38,-39
-40,-44
-42,-43
-43,-53
-43,-52
-47,-58
-56,-63
-60,-60
-59,-63
-64,-68
-68,-69
-69,-69
-71,-74
-76,-76
-80,-75
-83,-74
-85,-70
-85,-68
-88,-67
-88,-67
-84,-70
-85,-70
-85,-70
-87,-69
-89,-67
-87,-69
-87,-71
-89,-69
-89,-70
-87,-69
-86,-70
-87,-69
-83,-72
-84,-72
-83,-68
-85,-68
-81,-68
-71,-72
-62,-71
-43,-72
-23,-75
0,-74
43,-81
87,-82
127,-71
155,-64
165,-69
169,-125
168,-243
157,-371
137,-499
113,-603
100,-638
95,-658
96,-664
101,-667
103,-671
97,-667
81,-661
59,-640
40,-602
42,-568
62,-541
81,-517
89,-498
60,-455
12,-397
-32,-332
-63,-271
-71,-222
-72,-187
-77,-154
-84,-125
-93,-88
-99,-50
-98,-20
-96,-3
-95,0
-95,3
-94,0
-95,4
-101,9
-104,10
-100,11
-103,14
-98,12
-98,14
-99,17
-100,19
-103,21
-103,26
-105,23
-107,27
-109,26
-105,31
-101,33
-104,32
-105,38
-110,39
-111,39
-112,44
-115,49
-110,51
-113,50
-112,54
-113,59
-114,60
-123,61
-123,68
-124,73
-122,77
-125,79
-125,85
-124,89
-122,94
-126,99
-126,103
-129,101
-132,110
-132,117
-128,122
-124,126
-120,129
-122,132
-127,137
-131,141
-129,145
-132,147
-127,151
-127,151
-124,153
-121,151
-120,152
-122,154
-126,157
-125,153
-119,153
-116,153
-116,149
-112,146
-106,140
-107,138
-104,129
-104,120
-98,115
-98,100
-95,95
-86,89
-84,76
-83,66
-85,55
-81,41
-84,31
-87,24
-83,16
-86,6
-87,0
-83,-8
-80,-12
-83,-16
-86,-23
-86,-24
-86,-24
-87,-33
-80,-32
-84,-37
-82,-37
-88,-38
-85,-38
-85,-41
-89,-36
-84,-36
-88,-34
-88,-37
-88,-32
-86,-30
-81,-30
-83,-31
-86,-32
-89,-30
-84,-30
-86,-28
-87,-30
-87,-32
-83,-31
-82,-29
-84,-31
-77,-32
-81,-37
-82,-31
-81,-36
-78,-36
-81,-32
-79,-37
-80,-36
-76,-39
-75,-41
-74,-45
-74,-42
-76,-40
-71,-42
-60,-46
-60,-41
-57,-46
-51,-45
-50,-45
-44,-42
-44,-36
-42,-31
-40,-34
-35,-31
-31,-30
-30,-30
-25,-31
-28,-32
-37,-28
-41,-35
-40,-36
-45,-39
-48,-49
-48,-54
-49,-54
-52,-55
-55,-57
-57,-56
-63,-63
-65,-61
-70,-63
-77,-67
-79,-64
-75,-66
-76,-63
-79,-61
-80,-61
-80,-57
-80,-59
-77,-61
-80,-61
-78,-61
-77,-61
-77,-64
-79,-64
-78,-64
-76,-63
-80,-66
-78,-63
-80,-64
-74,-64
-68,-60
-68,-67
-66,-64
-65,-68
-65,-66
-56,-62
-44,-66
-25,-66
-2,-68
35,-66
76,-69
121,-67
157,-62
175,-56
187,-87
188,-177
187,-305
174,-433
155,-552
137,-620
131,-643
128,-659
126,-665
129,-666
120,-668
108,-665
93,-647
72,-613
62,-577
76,-549
98,-523
109,-504
93,-479
59,-425
12,-353
-30,-289
-51,-239
-59,-199
-55,-170
-59,-142
-72,-108
-84,-74
-86,-40
-86,-15
-85,0
-83,1
-78,-2
-82,0
-83,3
-81,5
-86,9
-87,9
-88,10
-86,14
-88,12
-87,16
-84,13
-83,18
-86,20
-82,19
-88,23
-92,30
-93,26
-95,32
-93,32
-91,29
-93,32
-95,36
-96,40
-97,39
-100,47
-98,45
-100,52
-101,52
-102,58
-100,60
-103,65
-106,71
-108,71
-105,78
-107,83
-111,87
-110,91
-109,95
-111,102
-111,102
-109,110
-113,113
-117,124
-114,126
-116,134
-115,135
-112,136
-111,140
-113,143
-114,144
-112,148
-113,149
-111,152
-107,154
-107,158
-103,157
-99,155
-95,154
-97,152
-96,152
-96,147
-89,145
-83,137
-84,132
-76,122
-70,113
-68,104
-65,95
-67,90
-62,77
-62,65
-59,56
-55,46
-54,31
-49,24
-51,13
-51,5
-54,-2
-53,-7
-54,-16
-55,-25
-51,-29
-53,-37
-54,-37
-54,-42
-56,-44
-55,-46
-54,-48
-56,-47
-60,-41
-56,-48
-57,-48
-56,-46
-56,-43
-58,-48
-59,-45
-62,-42
-62,-42
-59,-45
-62,-41
-57,-43
-58,-43
-59,-41
-57,-42
-60,-38
-62,-38
-63,-39
-64,-40
-62,-39
-56,-40
-54,-46
-59,-43
-59,-51
-59,-49
-62,-45
-57,-46
-57,-51
-57,-48
-53,-53
-55,-50
-53,-54
-53,-54
-55,-53
-56,-52
-55,-55
-54,-53
-53,-52
-51,-54
-49,-55
-47,-57
-41,-61
-39,-58
-34,-57
-32,-53
-30,-54
-24,-50
-18,-50
-13,-44
-11,-44
-11,-38
-5,-36
-5,-31
-6,-34
-8,-32
-10,-32
-13,-34
-15,-38
-18,-40
-16,-42
-26,-49
-32,-54
-32,-56
-38,-54
-35,-60
-37,-60
-38,-64
-44,-67
-47,-70
-52,-66
-58,-68
-59,-70
-63,-67
-58,-65
-60,-66
-61,-68
-60,-68
-61,-68
-60,-68
-62,-63
-63,-68
-63,-67
-56,-67
-59,-64
-57,-69
-55,-65
-53,-66
-56,-66
-56,-71
-54,-68
-52,-66
-49,-67
-44,-67
-39,-64
-23,-66
-8,-71
15,-69
42,-69
82,-73
122,-69
149,-62
167,-58
178,-90
176,-186
171,-314
155,-442
136,-562
127,-613
125,-634
121,-640
126,-648
132,-653
132,-653
122,-648
107,-638
88,-618
79,-588
94,-562
117,-543
129,-525
120,-497
87,-447
40,-379
-3,-307
-26,-244
-37,-197
-45,-165
-44,-137
-51,-103
-66,-66
-67,-33
-67,-12
-68,3
-68,9
-73,10
-70,14
-72,11
-74,16
-72,20
-73,23
-67,23
-75,23
-75,24
-77,25
-78,29
-76,31
-78,32
-79,33
-76,36
-74,37
-77,39
-77,41
-83,42
-83,46
-83,49
-84,54
-87,50
-86,55
-84,54
-89,62
-90,65
-93,68
-93,69
-97,78
-94,84
-99,82
-96,87
-100,85
-101,89
-104,97
-107,101
-107,106
-107,113
-105,120
-105,124
-102,126
-103,129
-101,134
-101,140
-107,140
-107,143
-109,149
-107,150
-106,154
-106,153
-101,160
-97,156
-98,159
-103,162
-99,163
-99,162
-93,159
-97,160
-91,155
-87,151
-82,148
-82,144
-78,137
-73,130
-76,124
-70,119
-67,111
-62,102
-58,91
-60,84
-55,70
-54,63
-54,53
-56,42
-57,31
-54,24
-52,16
-52,7
-55,1
-53,-9
-56,-14
-61,-22
-60,-20
-59,-27
-58,-32
-61,-31
-59,-33
-56,-37
-60,-36
-63,-39
-62,-39
-67,-33
-70,-36
-72,-35
-71,-33
-67,-35
-69,-34
-71,-34
-76,-33
-71,-29
-73,-28
-73,-30
-73,-24
-72,-28
-71,-31
-71,-29
-71,-32
-69,-34
-77,-32
-75,-31
-75,-35
-71,-32
-77,-34
-73,-37
-72,-37
-75,-35
-76,-38
-73,-40
-73,-41
-75,-41
-76,-42
-74,-42
-74,-44
-70,-48
-71,-47
-72,-44
-74,-49
-76,-48
-77,-48
-71,-49
-69,-49
-63,-52
-59,-49
-52,-49
-52,-48
-54,-44
-48,-44
-47,-41
-40,-41
-37,-41
-31,-35
-29,-32
-28,-29
-29,-34
-33,-35
-42,-31
-43,-34
-46,-31
-47,-37
-48,-42
-46,-39
-53,-52
-57,-48
-61,-53
-63,-49
-68,-50
-70,-53
-71,-57
-74,-59
-76,-55
-80,-58
-85,-57
-88,-58
-86,-53
-85,-53
-89,-53
-84,-55
-84,-51
-81,-55
-80,-55
-87,-55
-87,-59
-86,-53
-84,-54
-87,-53
-83,-50
-82,-51
-78,-51
-78,-58
-79,-53
-82,-55
-75,-52
-76,-50
-63,-50
-47,-49
-29,-50
-1,-52
34,-56
75,-60
111,-56
139,-41
144,-39
148,-80
143,-172
134,-298
119,-411
99,-492
87,-525
81,-538
79,-548
86,-551
87,-552
80,-553
67,-549
48,-531
31,-498
29,-468
48,-447
70,-426
73,-409
53,-384
14,-333
-28,-281
-58,-231
-68,-186
-69,-159
-69,-132
-76,-103
-88,-76
-98,-45
-98,-17
-99,5
-100,11
-98,14
-95,12
-94,10
-98,17
-96,20
-102,20
-103,23
-93,24
-96,25
-98,27
-99,27
-101,30
-97,35
-105,33
-103,34
-98,35
-103,37
-105,38
-103,39
-106,39
-105,38
-107,40
-107,47
-111,46
-111,55
-109,53
-112,57
-111,55
-112,63
-112,65
-113,63
-112,68
-117,73
-118,76
-117,79
-121,85
-120,86
-122,85
-123,92
-125,97
-125,101
-128,106
-128,110
-126,109
-123,115
-122,123
-119,117
-124,120
-126,118
-129,121
-127,123
-123,125
-120,131
-117,127
-117,126
-120,127
-118,127
-119,127
-117,125
-117,120
-116,119
-111,119
-105,119
-106,112
-99,105
-97,97
-98,91
-95,87
-93,85
-92,75
-89,63
-87,54
-85,48
-90,41
-86,32
-87,24
-89,20
-87,11
-88,6
-88,4
-88,-5
-88,-15
-87,-14
-92,-22
-94,-22
-90,-25
-90,-30
-92,-29
-88,-30
-94,-32
-93,-30
-92,-31
-93,-30
-96,-31
-95,-32
-94,-32
-98,-29
-92,-24
-90,-33
-90,-31
-86,-30
-89,-32
-89,-27
-94,-29
-94,-27
-89,-28
-85,-27
-84,-31
-83,-31
-81,-28
-87,-29
-87,-34
-83,-31
-86,-33
-85,-35
-82,-35
-81,-40
-80,-40
-82,-40
-83,-41
-84,-42
-82,-43
-82,-40
-82,-45
-82,-41
-77,-42
-68,-45
-62,-46
-58,-45
-59,-45
-58,-42
-56,-41
-51,-36
-49,-36
-48,-35
-44,-35
-43,-32
-42,-30
-39,-33
-46,-30
-52,-32
-51,-38
-52,-38
-49,-41
-51,-45
-54,-49
-58,-46
-61,-46
-63,-47
-66,-51
-73,-54
-74,-54
-76,-57
-77,-52
-81,-58
-81,-57
-77,-55
-84,-55
-84,-51
-82,-51
-83,-52
-81,-53
-83,-53
-84,-55
-80,-54
-78,-56
-77,-52
-81,-49
-82,-51
-82,-51
-76,-51
-74,-54
-74,-55
-74,-54
-74,-52
-72,-50
-74,-52
-68,-52
-60,-53
-50,-49
-32,-51
-14,-52
11,-52
44,-57
85,-58
115,-49
136,-38
150,-45
154,-88
151,-167
144,-261
131,-336
111,-392
99,-419
95,-428
95,-435
101,-437
99,-437
92,-439
79,-428
58,-410
49,-381
64,-361
76,-341
87,-330
80,-312
46,-285
6,-252
-28,-207
-43,-170
-56,-146
-52,-128
-49,-106
-63,-86
-71,-60
-72,-42
-77,-15
-71,-1
-67,-2
-68,0
-73,1
-72,1
-72,6
-73,4
-73,11
-66,12
-67,7
-69,11
-68,10
-66,11
-66,11
-70,16
-73,14
-72,15
-72,19
-72,20
-69,16
-70,16
-70,21
-71,24
-76,31
-75,29
-79,29
-74,29
-81,29
-80,33
-81,38
-87,41
-87,41
-89,46
-91,50
-92,48
-89,54
-92,55
-92,62
-91,60
-92,64
-91,66
-93,72
-98,77
-95,79
-97,80
-94,87
-96,88
-97,87
-95,93
-98,98
-98,97
-103,92
-99,99
-97,100
-94,102
-94,107
-95,102
-94,103
-96,102
-91,105
-91,101
-90,103
-88,100
-81,101
-79,93
-79,89
-75,91
-73,82
-73,77
-66,72
-68,70
-62,63
-60,59
-61,50
-56,39
-51,29
-51,25
-56,15
-52,12
-56,5
-52,0
-52,-7
-50,-14
-49,-16
-53,-21
-52,-26
-57,-29
-60,-33
-56,-32
-59,-37
-57,-36
-58,-31
-59,-36
-61,-36
-63,-35
-63,-38
-64,-37
-66,-35
-62,-39
-66,-34
-70,-31
-64,-38
-64,-36
-66,-35
-73,-38
-68,-34
-70,-29
-70,-35
-71,-33
-65,-32
-68,-34
-66,-34
-71,-38
-70,-35
-73,-39
-70,-37
-69,-35
-73,-40
-68,-42
-67,-40
-69,-41
-72,-38
-69,-43
-71,-43
-73,-45
-74,-46
-77,-46
-80,-51
-74,-47
-76,-50
-80,-49
-72,-49
-69,-52
-66,-52
-69,-52
-67,-52
-64,-51
-51,-49
-49,-50
-47,-46
-47,-47
-47,-46
-46,-42
-45,-37
-44,-35
-39,-32
-37,-31
-41,-34
-45,-37
-50,-38
-52,-40
-53,-39
-55,-44
-58,-44
-60,-46
-62,-50
-62,-49
-67,-51
-67,-55
-70,-54
-75,-59
-80,-56
-82,-56
-85,-57
-89,-56
-81,-55
-79,-57
-86,-53
-83,-56
-90,-54
-89,-55
-84,-51
-83,-52
-87,-56
-89,-60
-83,-58
-83,-57
-81,-56
-82,-54
-85,-60
-87,-57
-84,-56
-81,-55
-80,-56
-75,-53
-73,-55
-64,-59
-58,-55
-45,-55
-28,-52
-2,-59
29,-57
63,-58
93,-54
110,-48
115,-49
113,-93
108,-176
102,-289
88,-387
72,-442
70,-471
71,-477
76,-485
79,-492
77,-491
66,-490
52,-482
38,-461
28,-431
39,-404
58,-388
73,-381
66,-363
43,-334
0,-298
-35,-251
-53,-202
-62,-169
-61,-143
-63,-116
-69,-97
-74,-72
-78,-44
-82,-17
-81,0
-83,10
-83,10
-84,9
-83,12
-81,11
-77,11
-76,16
-76,18
-80,16
-76,19
-80,19
-82,24
-81,24
-80,26
-83,28
-80,27
-79,28
-82,30
-85,34
-89,34
-83,38
-86,37
-88,40
-86,38
-88,41
-88,46
-88,45
-93,47
-98,50
-96,53
-94,57
-93,62
-97,60
-95,65
-98,70
-99,72
-99,71
-104,76
-102,81
-102,83
-105,88
-103,90
-101,89
-99,93
-101,99
-102,100
-104,107
-102,112
-101,110
-103,119
-100,116
-104,118
-100,121
-99,124
-101,122
-99,122
-101,126
-98,125
-97,123
-92,123
-86,124
-87,122
-82,112
-84,112
-83,113
-83,109
-79,99
-74,96
-72,90
-67,84
-64,75
-63,70
-64,59
-62,53
-61,44
-64,37
-58,27
-62,21
-61,11
-62,4
-57,-3
-64,-7
-64,-16
-64,-15
-64,-20
-64,-23
-63,-27
-64,-32
-64,-30
-65,-34
-69,-32
-68,-32
-73,-33
-68,-34
-71,-29
-71,-33
-68,-32
-70,-33
-69,-36
-74,-32
-70,-32
-77,-34
-73,-27
-72,-30
-72,-30
-73,-34
-71,-32
-68,-28
-69,-35
-73,-35
-73,-37
-73,-34
-67,-38
-67,-34
-71,-37
-68,-35
-63,-39
-68,-42
-69,-43
-71,-42
-72,-44
-69,-45
-73,-45
-64,-45
-64,-44
-65,-45
-67,-47
-65,-48
-66,-51
-66,-53
-66,-48
-70,-47
-65,-52
-58,-51
-51,-53
-48,-53
-46,-54
-44,-56
-42,-49
-44,-47
-43,-43
-39,-42
-32,-44
-30,-43
-27,-37
-31,-35
-35,-40
-39,-38
-43,-42
-46,-41
-51,-47
-50,-49
-47,-58
-50,-58
-53,-54
-62,-59
-60,-59
-60,-57
-67,-62
-64,-67
-67,-64
-70,-66
-72,-68
-75,-67
-75,-60
-79,-64
-78,-58
-80,-64
-75,-63
-76,-63
-76,-64
-73,-65
-75,-65
-79,-66
-78,-63
-77,-60
-77,-65
-76,-64
-72,-64
-70,-66
-70,-67
-72,-65
-68,-67
-68,-60
-68,-63
-62,-64
-56,-66
-35,-64
-15,-67
10,-68
43,-67
73,-62
91,-61
103,-53
108,-77
106,-151
95,-277
88,-402
77,-484
71,-527
66,-547
65,-553
70,-556
72,-561
71,-562
57,-560
42,-549
31,-526
28,-494
43,-473
60,-454
63,-444
42,-419
7,-380
-25,-320
-54,-260
-62,-208
-66,-172
-67,-146
-69,-115
-77,-90
-84,-60
-92,-31
-92,-6
-89,6
-90,8
-91,5
-89,3
-90,8
-93,7
-89,11
-90,12
-94,12
-90,17
-88,24
-92,20
-90,21
-88,23
-95,25
-95,25
-92,27
-96,31
-92,35
-94,34
-95,36
-97,38
-97,35
-97,42
-98,46
-101,48
-99,48
-100,55
-104,60
-103,58
-100,62
-101,67
-102,68
-104,72
-105,80
-103,86
-106,86
-108,87
-106,93
-106,96
-107,100
-108,102
-111,107
-108,114
-107,114
-109,121
-111,128
-108,132
-107,131
-107,132
-103,132
-109,135
-106,137
-105,138
-107,141
-105,144
-104,142
-102,143
-100,143
-96,141
-97,141
-97,139
-95,139
-92,136
-93,131
-89,127
-85,123
-83,114
-80,106
-80,99
-80,93
-79,84
-80,75
-76,68
-77,59
-77,52
-77,40
-77,30
-76,19
-80,12
-80,6
-78,3
-80,-2
-83,-12
-75,-14
-80,-21
-77,-27
-80,-27
-86,-30
-85,-29
-83,-26
-86,-27
-85,-28
-85,-29
-82,-33
-84,-29
-79,-32
-87,-29
-87,-32
-89,-33
-89,-31
-88,-30
-84,-32
-86,-31
-85,-30
-89,-32
-88,-31
-86,-27
-87,-29
-87,-29
-87,-29
-91,-31
-85,-37
-85,-35
-83,-35
-89,-35
-89,-34
-89,-36
-88,-38
-87,-40
-86,-41
-86,-43
-83,-42
-83,-47
-85,-46
-87,-45
-85,-46
-84,-46
-79,-48
-76,-47
-74,-46
-68,-48
-69,-49
-66,-45
-67,-43
-64,-41
-61,-40
-60,-34
-56,-33
-56,-33
-53,-33
-55,-35
-59,-31
-64,-37
-64,-38
-69,-41
-72,-44
-75,-55
-73,-56
-71,-56
-77,-56
-79,-60
-81,-63
-86,-61
-88,-62
-92,-66
-93,-64
-96,-64
-98,-63
-97,-64
-98,-64
-101,-63
-97,-65
-101,-61
-101,-65
-99,-64
-96,-61
-95,-66
-97,-66
-93,-63
-97,-65
-98,-66
-97,-63
-97,-63
-98,-62
-92,-64
-89,-60
-90,-68
-90,-67
-86,-67
-80,-67
-72,-61
-59,-62
-42,-62
-17,-64
9,-71
43,-71
68,-69
82,-59
89,-71
86,-132
79,-244
72,-372
55,-481
44,-541
36,-570
30,-586
36,-588
37,-594
33,-600
29,-595
11,-578
-2,-551
-8,-519
1,-483
13,-464
22,-441
13,-427
-13,-385
-46,-335
-75,-279
-83,-228
-85,-190
-82,-163
-84,-135
-93,-105
-100,-75
-103,-43
-107,-17
-100,-2
