Var1_1,Var1_2
-124,-61
-127,-67
-128,-66
-129,-64
-129,-66
-128,-64
-132,-65
-132,-66
-131,-66
-135,-66
-133,-62
-131,-64
-126,-64
-124,-67
-126,-66
-127,-64
-129,-66
-131,-66
-129,-66
-127,-66
-120,-68
-105,-66
-90,-64
-82,-65
-71,-64
-64,-69
-60,-63
-64,-64
-59,-76
-65,-85
-84,-105
-126,-128
-174,-150
-213,-163
-244,-169
-272,-169
-283,-172
-278,-167
-267,-165
-232,-160
-193,-152
-151,-155
-126,-147
-117,-133
-119,-108
-121,-81
-120,-59
-119,-49
-115,-44
-114,-53
-115,-48
-109,-49
-110,-49
-110,-46
-108,-46
-108,-46
-109,-44
-105,-47
-105,-40
-99,-49
-103,-44
-102,-48
-97,-43
-96,-44
-99,-44
-96,-41
-96,-38
-96,-42
-91,-37
-90,-37
-89,-38
-89,-34
-88,-41
-89,-37
-87,-32
-87,-31
-85,-31
-84,-34
-78,-27
-81,-30
-78,-28
-76,-25
-76,-24
-72,-20
-71,-20
-73,-20
-68,-21
-68,-19
-69,-20
-72,-19
-71,-24
-74,-24
-75,-24
-78,-31
-78,-35
-86,-41
-89,-46
-87,-46
-90,-49
-93,-51
-95,-54
-98,-54
-95,-56
-96,-58
-97,-54
-95,-62
-95,-57
-97,-59
-95,-57
-95,-59
-95,-57
-96,-59
-99,-57
-97,-57
-95,-52
-92,-56
-99,-60
-100,-62
-97,-56
-101,-56
-98,-53
-98,-57
-96,-59
-94,-59
-95,-61
-93,-55
-94,-57
-93,-59
-94,-54
-95,-55
-96,-56
-98,-53
-96,-56
-97,-54
-92,-57
-93,-54
-87,-57
-84,-55
-88,-51
-84,-56
-80,-57
-77,-56
-70,-53
-64,-53
-56,-54
-49,-57
-50,-53
-52,-52
-49,-49
-55,-49
-63,-52
-65,-51
-71,-53
-78,-54
-79,-53
-79,-52
-85,-52
-91,-52
-96,-52
-96,-52
-101,-48
-101,-51
-96,-53
-97,-51
-98,-52
-100,-52
-100,-52
-98,-53
-98,-52
-102,-55
-103,-52
-101,-53
-99,-51
-99,-55
-95,-52
-93,-53
-88,-47
-78,-49
-69,-50
-51,-53
-38,-51
-31,-53
-29,-54
-30,-56
-25,-62
-32,-80
-59,-95
-110,-118
-163,-140
-201,-159
-232,-161
-247,-158
-245,-156
-241,-156
-232,-154
-206,-145
-168,-135
-134,-135
-115,-126
-101,-114
-104,-92
-102,-66
-101,-47
-99,-36
-98,-33
-95,-36
-95,-33
-97,-32
-96,-33
-94,-33
-96,-31
-94,-32
-94,-38
-90,-38
-90,-36
-92,-35
-92,-34
-90,-31
-92,-33
-87,-38
-84,-34
-83,-36
-84,-35
-86,-34
-83,-30
-81,-27
-82,-28
-82,-31
-79,-27
-76,-27
-73,-25
-68,-28
-68,-27
-66,-23
-66,-23
-67,-21
-64,-20
-64,-16
-60,-15
-62,-19
-61,-14
-53,-16
-54,-13
-51,-14
-54,-10
-54,-15
-55,-14
-51,-16
-54,-20
-54,-22
-59,-21
-59,-25
-67,-28
-66,-34
-69,-37
-70,-38
-71,-40
-72,-42
-72,-44
-76,-44
-76,-45
-73,-49
-78,-50
-77,-49
-81,-51
-80,-46
-78,-46
-81,-47
-79,-49
-75,-46
-76,-51
-73,-51
-79,-49
-80,-52
-81,-55
-81,-53
-80,-53
-77,-49
-74,-53
-72,-50
-74,-49
-78,-48
-75,-53
-78,-52
-77,-53
-78,-51
-75,-53
-72,-51
-70,-54
-70,-52
-69,-50
-67,-53
-68,-50
-64,-51
-64,-52
-61,-53
-52,-50
-40,-48
-38,-50
-34,-48
-32,-49
-32,-46
-35,-44
-38,-48
-43,-47
-49,-49
-51,-52
-50,-50
-59,-52
-67,-50
-67,-52
-74,-57
-74,-56
-77,-51
-79,-55
-77,-57
-77,-51
-78,-55
-78,-55
-76,-56
-79,-55
-78,-56
-78,-55
-77,-55
-79,-57
-78,-57
-76,-54
-79,-58
-78,-56
-78,-57
-78,-59
-70,-56
-56,-58
-42,-54
-30,-59
-21,-58
-13,-56
-12,-53
-16,-58
-17,-67
-24,-78
-60,-99
-110,-124
-146,-142
-183,-148
-212,-151
-230,-154
-234,-148
-225,-146
-201,-144
-168,-141
-128,-141
-98,-138
-79,-131
-77,-115
-73,-86
-76,-61
-74,-53
-74,-44
-74,-43
-71,-47
-70,-45
-71,-46
-71,-45
-71,-45
-70,-41
-71,-40
-68,-44
-68,-47
-67,-44
-64,-44
-62,-43
-61,-39
-62,-40
-59,-43
-56,-41
-61,-37
-60,-38
-58,-37
-53,-38
-52,-37
-52,-34
-51,-36
-54,-35
-48,-35
-48,-30
-49,-31
-50,-30
-48,-29
-41,-27
-42,-27
-42,-29
-36,-27
-37,-22
-37,-22
-36,-20
-34,-18
-34,-23
-31,-23
-34,-20
-33,-23
-32,-22
-36,-22
-41,-23
-44,-31
-44,-31
-48,-31
-52,-40
-50,-41
-49,-48
-52,-45
-55,-47
-54,-46
-55,-45
-56,-48
-57,-46
-58,-50
-57,-52
-54,-54
-56,-54
-59,-50
-60,-47
-56,-48
-60,-45
-59,-48
-59,-46
-56,-47
-59,-46
-51,-44
-54,-49
-50,-42
-55,-48
-56,-42
-52,-47
-58,-44
-56,-41
-58,-48
-53,-47
-54,-49
-51,-46
-53,-46
-52,-42
-54,-46
-57,-46
-51,-43
-55,-47
-54,-44
-49,-46
-50,-43
-47,-43
-45,-42
-43,-40
-44,-44
-39,-44
-39,-40
-34,-42
-24,-40
-17,-42
-11,-39
-14,-37
-13,-37
-11,-36
-16,-37
-20,-38
-24,-41
-27,-41
-30,-43
-32,-45
-44,-40
-43,-40
-45,-40
-50,-39
-50,-42
-53,-40
-52,-41
-55,-40
-53,-43
-53,-45
-52,-38
-47,-41
-48,-39
-52,-38
-49,-38
-50,-40
-53,-37
-50,-41
-48,-40
-46,-40
-47,-39
-46,-38
-40,-39
-28,-38
-16,-39
-2,-41
7,-37
12,-37
14,-37
13,-40
12,-48
3,-63
-30,-86
-77,-109
-119,-129
-160,-133
-186,-137
-201,-134
-203,-138
-192,-140
-167,-133
-130,-128
-95,-119
-59,-118
-44,-108
-44,-90
-42,-64
-44,-37
-43,-24
-43,-18
-41,-16
-40,-18
-42,-22
-41,-21
-40,-17
-37,-22
-37,-20
-35,-22
-37,-20
-39,-16
-35,-21
-37,-19
-36,-19
-32,-22
-34,-18
-29,-15
-31,-21
-30,-18
-31,-16
-30,-16
-28,-14
-26,-11
-25,-13
-25,-10
-20,-10
-21,-11
-19,-6
-19,-5
-15,-4
-14,-4
-14,-1
-10,-2
-10,0
-9,0
-4,1
-8,2
-5,6
-4,3
-6,8
-4,3
-4,4
-4,5
-4,3
-6,2
-11,-4
-14,-6
-13,-10
-20,-16
-22,-21
-23,-22
-25,-23
-25,-26
-24,-23
-25,-27
-27,-30
-28,-25
-28,-30
-26,-33
-29,-29
-29,-28
-27,-30
-26,-30
-27,-31
-32,-30
-28,-26
-30,-28
-31,-30
-34,-29
-28,-27
-28,-27
-27,-29
-30,-34
-30,-31
-30,-30
-29,-30
-26,-30
-26,-26
-29,-28
-28,-33
-27,-29
-29,-28
-28,-27
-25,-30
-30,-29
-30,-29
-27,-29
-29,-31
-26,-33
-21,-35
-21,-31
-17,-31
-15,-32
-17,-31
-14,-29
-10,-28
-3,-31
1,-27
8,-31
8,-31
10,-30
11,-26
11,-28
8,-29
3,-33
-4,-36
-9,-35
-12,-30
-13,-37
-20,-40
-23,-41
-29,-38
-31,-33
-32,-35
-32,-31
-35,-34
-34,-36
-32,-36
-31,-40
-29,-34
-32,-40
-37,-38
-38,-38
-37,-36
-35,-31
-36,-34
-36,-38
-35,-36
-32,-38
-27,-38
-27,-38
-22,-36
-15,-34
-3,-35
5,-37
13,-36
19,-42
21,-40
19,-46
20,-54
12,-72
-20,-95
-69,-120
-110,-135
-144,-142
-175,-146
-193,-145
-192,-145
-181,-142
-158,-137
-121,-136
-82,-127
-55,-123
-40,-114
-36,-94
-37,-69
-31,-41
-33,-25
-32,-20
-34,-21
-32,-23
-32,-22
-30,-21
-32,-20
-30,-23
-31,-22
-25,-22
-27,-20
-25,-21
-26,-17
-26,-20
-28,-18
-27,-18
-27,-18
-25,-17
-22,-19
-24,-19
-19,-20
-20,-18
-16,-12
-18,-19
-18,-16
-18,-14
-18,-13
-16,-11
-11,-12
-12,-9
-8,-7
-4,-5
-8,-2
-7,0
-8,-2
-7,0
-7,-2
-6,5
-3,1
-5,5
-3,6
3,8
6,9
5,5
2,3
0,0
0,-2
-1,-8
-7,-12
-10,-13
-16,-17
-18,-18
-24,-20
-26,-24
-25,-28
-28,-34
-28,-29
-25,-34
-28,-35
-30,-33
-31,-32
-32,-28
-32,-27
-27,-25
-31,-28
-28,-30
-25,-26
-28,-29
-28,-28
-26,-28
-28,-29
-27,-26
-29,-27
-31,-28
-33,-27
-31,-26
-26,-24
-27,-27
-26,-26
-24,-24
-26,-21
-27,-23
-25,-26
-27,-21
-28,-28
-26,-26
-26,-24
-24,-24
-28,-24
-28,-17
-27,-24
-32,-20
-29,-20
-29,-23
-26,-22
-23,-25
-20,-27
-20,-29
-17,-25
-13,-24
-10,-18
-2,-15
5,-22
12,-18
18,-23
15,-22
17,-22
18,-24
14,-18
7,-21
-1,-23
0,-20
-8,-22
-13,-24
-16,-25
-21,-26
-25,-30
-31,-26
-28,-25
-32,-22
-35,-25
-35,-28
-31,-29
-32,-29
-30,-27
-30,-26
-29,-28
-33,-25
-30,-24
-35,-29
-33,-27
-40,-28
-32,-32
-31,-32
-30,-29
-28,-27
-24,-29
-15,-29
-1,-25
4,-32
12,-26
15,-25
14,-31
13,-35
16,-48
12,-61
-12,-86
-59,-107
-103,-132
-139,-143
-169,-149
-180,-145
-181,-144
-173,-146
-155,-136
-124,-134
-83,-128
-48,-124
-25,-113
-23,-98
-22,-72
-24,-42
-18,-24
-22,-13
-20,-14
-22,-14
-21,-15
-20,-14
-19,-18
-19,-12
-20,-12
-17,-16
-15,-15
-17,-13
-18,-14
-17,-8
-11,-10
-12,-13
-15,-12
-9,-13
-7,-14
-6,-13
-7,-10
-6,-13
-5,-10
-5,-11
-5,-5
-4,-8
1,-9
-1,-7
0,-7
0,-3
1,-2
3,-1
4,1
5,0
8,0
11,3
12,4
12,6
16,6
18,9
22,7
21,7
18,9
12,9
7,8
4,0
4,-2
-1,-4
-8,-3
-10,-9
-11,-15
-17,-19
-22,-25
-27,-24
-27,-28
-21,-34
-21,-34
-20,-33
-23,-31
-25,-34
-27,-29
-31,-33
-33,-36
-36,-34
-32,-34
-36,-37
-37,-33
-35,-33
-36,-35
-34,-30
-37,-35
-42,-32
-42,-30
-46,-34
-44,-33
-42,-33
-41,-35
-39,-37
-38,-33
-42,-32
-42,-35
-42,-32
-38,-34
-41,-33
-36,-34
-37,-34
-40,-33
-39,-35
-43,-35
-46,-30
-46,-31
-48,-29
-47,-34
-41,-33
-41,-34
-43,-32
-45,-35
-47,-33
-45,-35
-47,-31
-45,-32
-46,-31
-43,-33
-45,-36
-43,-35
-45,-30
-44,-29
-43,-33
-43,-33
-48,-31
-46,-30
-43,-32
-46,-30
-47,-31
-42,-34
-42,-37
-44,-30
-47,-34
-46,-34
-44,-35
-44,-32
-39,-32
-36,-30
-30,-32
-32,-31
-32,-32
-34,-29
-23,-28
-14,-28
-6,-32
-3,-27
-2,-26
-2,-23
-2,-26
-7,-27
-8,-28
-18,-30
-26,-24
-29,-30
-32,-31
-39,-32
-45,-32
-47,-36
-49,-29
-52,-31
-50,-29
-54,-27
-48,-34
-52,-30
-52,-31
-46,-32
-52,-32
-50,-32
-47,-32
-48,-25
-49,-31
-54,-30
-52,-27
-49,-31
-49,-32
-42,-33
-40,-33
-26,-29
-15,-30
-5,-28
3,-30
10,-26
14,-26
13,-36
20,-48
16,-60
2,-78
-43,-101
-98,-126
-140,-137
-172,-144
-188,-149
-193,-150
-191,-150
-174,-144
-148,-134
-109,-128
-78,-119
-57,-118
-44,-103
-45,-77
-46,-48
-40,-24
-40,-15
-38,-15
-36,-12
-35,-16
-40,-14
-37,-12
-35,-13
-33,-13
-34,-13
-33,-15
-31,-10
-32,-14
-30,-16
-26,-13
-23,-13
-26,-13
-28,-9
-26,-12
-26,-15
-24,-15
-24,-13
-22,-12
-21,-12
-18,-12
-18,-5
-18,-9
-19,-8
-16,-4
-14,-7
-16,-5
-8,-2
-6,1
-6,-1
-2,1
-3,2
-6,4
-1,0
0,6
1,9
7,5
4,3
8,8
8,10
8,12
9,9
5,6
8,3
9,0
1,-2
-3,-8
-4,-13
-7,-16
-11,-20
-13,-24
-12,-25
-19,-23
-18,-27
-15,-29
-20,-25
-17,-30
-19,-31
-19,-32
-21,-29
-19,-30
-19,-32
-19,-30
-19,-30
-19,-31
-20,-30
-17,-32
-21,-27
-19,-29
-19,-30
-20,-30
-26,-32
-24,-27
-24,-27
-20,-30
-21,-30
-23,-31
-24,-30
-17,-29
-21,-32
-20,-32
-25,-32
-25,-31
-22,-30
-24,-32
-23,-34
-25,-32
-27,-31
-26,-32
-26,-33
-24,-30
-20,-37
-26,-32
-28,-33
-27,-33
-24,-30
-24,-30
-24,-31
-18,-32
-24,-32
-20,-31
-21,-30
-17,-32
-10,-31
-11,-31
-1,-28
6,-28
10,-28
14,-31
12,-31
11,-25
10,-31
7,-30
4,-31
1,-29
-7,-27
-17,-31
-21,-31
-27,-36
-31,-34
-29,-34
-33,-32
-34,-32
-37,-33
-34,-34
-39,-32
-42,-32
-39,-35
-40,-35
-39,-37
-38,-37
-38,-32
-37,-36
-40,-37
-40,-32
-42,-33
-41,-34
-37,-34
-42,-32
-36,-33
-33,-38
-21,-32
-8,-38
0,-35
8,-33
16,-33
23,-33
20,-32
17,-42
13,-54
-6,-71
-56,-91
-107,-115
-144,-128
-175,-133
-192,-125
-198,-127
-192,-128
-173,-126
-144,-122
-101,-118
-68,-114
-44,-110
-39,-97
-40,-73
-40,-48
-42,-29
-36,-22
-37,-14
-39,-20
-34,-19
-35,-16
-31,-14
-37,-19
-37,-21
-36,-16
-35,-22
-32,-20
-30,-16
-27,-18
-26,-15
-26,-16
-24,-17
-21,-18
-21,-17
-23,-16
-22,-14
-17,-16
-18,-12
-16,-13
-16,-12
-12,-8
-10,-11
-7,-8
-7,-5
-6,-5
-3,-5
-2,-2
0,-3
-1,0
-3,0
-1,1
1,3
1,7
5,4
10,4
6,2
9,8
14,4
8,5
7,3
7,-1
2,3
1,-1
-2,-3
-3,-5
-5,-13
-8,-19
-12,-22
-13,-19
-11,-22
-12,-21
-13,-25
-16,-26
-18,-27
-15,-28
-13,-27
-10,-26
-12,-23
-13,-24
-13,-22
-10,-24
-13,-22
-11,-23
-10,-26
-12,-24
-12,-22
-9,-20
-12,-23
-12,-23
-12,-19
-8,-20
-12,-24
-11,-20
-12,-22
-10,-24
-7,-23
-12,-26
-8,-22
-7,-21
-10,-20
-9,-20
-9,-22
-8,-24
-8,-24
-7,-25
-7,-22
-5,-22
-7,-24
-6,-23
-9,-20
-7,-24
-8,-21
-6,-27
-6,-25
-3,-25
-8,-26
-6,-22
-5,-27
-4,-24
-6,-23
-5,-26
-4,-28
-4,-24
-5,-25
-6,-23
-4,-25
-2,-26
-3,-29
4,-26
7,-24
6,-28
9,-25
13,-25
21,-20
25,-22
33,-22
36,-22
41,-19
40,-22
48,-19
47,-24
43,-24
36,-21
33,-22
23,-22
20,-23
14,-27
12,-27
4,-28
3,-30
3,-27
3,-30
0,-25
-2,-27
-2,-26
-1,-26
-3,-28
-1,-30
-2,-31
3,-31
-1,-28
-5,-26
2,-25
1,-24
2,-24
-1,-28
2,-30
-3,-30
-5,-32
-5,-32
-3,-31
0,-33
5,-39
4,-34
4,-37
10,-34
18,-36
30,-31
49,-30
54,-32
40,-35
-16,-32
-79,-37
-109,-51
-113,-71
-116,-95
-125,-116
-144,-124
-162,-124
-166,-121
-148,-119
-115,-123
-75,-124
-30,-127
-7,-126
3,-109
6,-84
5,-53
3,-30
4,-19
9,-20
5,-21
7,-19
8,-20
11,-21
4,-16
2,-22
7,-18
7,-19
13,-22
14,-18
14,-19
15,-21
12,-22
16,-14
14,-15
21,-17
22,-17
21,-16
23,-16
23,-12
27,-10
28,-13
30,-11
32,-11
30,-12
31,-4
36,-7
35,-5
36,-1
41,-1
43,4
39,5
42,5
44,6
47,3
45,4
49,3
53,3
49,4
46,2
43,0
43,-1
40,-4
37,-9
33,-8
35,-15
30,-20
26,-17
31,-19
29,-25
27,-29
22,-27
26,-27
27,-31
28,-28
28,-29
26,-31
28,-26
25,-31
26,-29
25,-26
23,-25
22,-23
23,-30
26,-32
25,-31
24,-31
23,-28
19,-25
19,-27
17,-28
20,-30
18,-30
21,-28
23,-26
20,-27
19,-26
23,-24
22,-25
22,-26
22,-23
25,-26
21,-26
22,-21
25,-27
24,-22
25,-25
20,-28
23,-23
21,-26
25,-23
24,-26
26,-27
22,-23
21,-24
21,-27
17,-29
19,-20
20,-21
23,-23
21,-23
19,-21
21,-21
23,-23
24,-25
28,-24
26,-24
27,-24
30,-23
34,-20
45,-21
53,-22
56,-19
59,-19
64,-20
62,-20
62,-20
55,-20
53,-25
49,-26
41,-26
38,-24
36,-24
32,-22
25,-24
19,-26
16,-24
15,-20
17,-25
15,-25
17,-24
16,-21
15,-24
17,-23
14,-20
18,-25
20,-26
12,-25
14,-26
16,-28
19,-24
16,-27
15,-27
17,-26
16,-23
27,-23
41,-26
54,-22
65,-22
72,-22
78,-25
77,-24
76,-30
72,-45
57,-63
15,-89
-38,-107
-73,-118
-113,-123
-136,-122
-148,-124
-147,-119
-130,-119
-91,-113
-52,-105
-19,-103
6,-100
13,-86
14,-67
15,-36
11,-15
13,-3
18,-6
19,-7
21,-7
20,-10
21,-10
21,-11
21,-11
22,-9
21,-9
23,-10
22,-11
25,-12
25,-6
25,-8
24,-13
28,-10
30,-11
29,-10
32,-12
33,-9
30,-8
30,-8
31,-1
32,-6
30,-5
31,-5
38,-5
37,-3
44,-1
41,-2
39,-3
38,-5
41,1
41,2
44,2
46,7
46,8
49,8
50,3
51,10
49,7
52,11
50,9
49,9
50,4
51,1
50,0
42,-3
43,-3
39,-9
34,-11
29,-14
27,-19
26,-13
26,-20
27,-24
29,-24
25,-23
25,-27
23,-25
23,-24
24,-28
25,-24
25,-26
21,-27
23,-30
24,-27
23,-23
21,-25
24,-26
18,-27
17,-23
17,-26
19,-27
17,-27
21,-30
18,-26
16,-25
14,-24
19,-30
17,-29
18,-30
20,-30
20,-30
20,-30
20,-31
23,-31
19,-33
16,-29
18,-31
19,-30
19,-31
18,-33
19,-36
20,-34
19,-35
17,-31
16,-30
15,-31
15,-35
18,-33
14,-33
13,-39
18,-38
17,-33
17,-34
18,-37
19,-36
17,-31
20,-29
25,-31
25,-28
25,-30
31,-29
37,-25
48,-26
52,-27
55,-28
57,-27
52,-29
56,-32
55,-31
44,-27
43,-30
38,-30
30,-31
24,-28
22,-32
15,-35
14,-34
12,-34
14,-29
12,-31
8,-34
8,-36
5,-32
5,-30
6,-32
7,-38
11,-37
12,-34
10,-35
7,-33
7,-32
11,-31
10,-34
12,-34
16,-33
23,-32
35,-35
48,-37
61,-36
67,-33
71,-34
77,-30
73,-33
70,-45
67,-62
44,-85
-1,-110
-52,-125
-87,-133
-120,-132
-143,-129
-145,-133
-139,-131
-120,-127
-88,-125
-47,-123
-15,-115
4,-110
13,-99
11,-68
10,-43
15,-26
14,-24
16,-20
20,-21
16,-25
19,-22
15,-22
15,-16
19,-19
22,-15
22,-17
18,-19
22,-17
27,-18
24,-17
24,-16
27,-13
22,-17
25,-14
24,-11
24,-12
27,-13
31,-14
30,-10
35,-12
36,-10
39,-5
40,-9
37,-4
39,-3
44,1
42,0
42,-1
43,1
45,4
46,3
50,5
51,7
49,6
52,11
51,10
49,8
52,6
54,7
51,6
52,6
51,3
44,1
44,-2
39,-2
37,-7
39,-14
37,-16
33,-19
33,-21
34,-25
28,-26
25,-24
28,-30
27,-32
26,-31
28,-30
31,-31
30,-28
29,-29
26,-30
28,-32
25,-28
26,-28
28,-26
27,-27
25,-29
27,-24
26,-27
25,-24
27,-28
25,-24
26,-24
22,-25
27,-29
26,-27
27,-29
26,-31
23,-24
28,-26
26,-23
25,-28
26,-28
24,-27
28,-29
27,-26
31,-27
28,-29
28,-25
29,-30
24,-29
26,-27
27,-28
26,-25
29,-28
29,-28
31,-22
32,-23
36,-22
35,-28
37,-29
36,-25
40,-25
51,-24
57,-24
62,-21
69,-20
66,-23
67,-23
68,-19
64,-21
60,-26
57,-23
49,-26
42,-27
40,-29
31,-30
27,-27
23,-25
19,-27
16,-26
16,-24
19,-26
20,-28
15,-24
18,-24
18,-29
18,-28
16,-27
17,-26
17,-29
17,-31
15,-36
16,-36
15,-31
17,-28
15,-30
18,-30
21,-31
32,-30
44,-30
53,-29
62,-29
69,-30
68,-30
63,-37
63,-52
52,-67
18,-90
-32,-113
-78,-132
-116,-141
-144,-142
-153,-140
-154,-138
-142,-139
-123,-132
-85,-126
-48,-117
-17,-120
7,-104
12,-85
10,-57
9,-30
8,-16
10,-11
11,-11
9,-11
8,-14
11,-16
15,-14
11,-15
11,-15
15,-13
11,-11
11,-11
14,-13
14,-9
12,-7
10,-6
13,-7
12,-4
13,-2
16,-5
16,-2
14,-1
15,-2
15,-3
19,-6
19,0
16,-3
20,0
17,4
21,5
23,10
23,8
20,7
26,8
31,7
29,8
31,6
31,15
29,16
33,12
31,17
35,20
30,13
36,13
35,15
33,11
30,13
26,8
22,6
15,0
12,-6
8,-10
5,-11
8,-14
6,-18
5,-20
3,-20
0,-15
-1,-14
-1,-16
0,-21
-1,-18
-3,-20
2,-20
0,-24
-4,-20
-4,-20
-2,-19
-4,-15
-6,-17
-7,-20
-4,-19
-6,-19
-5,-22
-6,-18
-6,-16
-8,-19
-10,-17
-12,-20
-9,-19
-8,-18
-8,-22
-10,-19
-8,-19
-11,-18
-13,-19
-14,-19
-18,-12
-8,-16
-13,-15
-14,-12
-15,-16
-12,-16
-13,-15
-11,-16
-14,-16
-17,-12
-18,-16
-18,-19
-18,-16
-18,-15
-16,-21
-21,-18
-16,-18
-16,-16
-18,-16
-16,-14
-16,-10
-18,-15
-15,-16
-11,-12
-12,-14
-3,-14
1,-12
8,-10
14,-12
15,-7
15,-9
18,-6
13,-11
7,-9
2,-12
-1,-16
-9,-12
-16,-10
-22,-15
-27,-15
-36,-16
-36,-15
-36,-14
-37,-16
-40,-15
-42,-15
-40,-15
-44,-14
-43,-11
-43,-15
-45,-12
-46,-16
-42,-16
-44,-14
-46,-17
-44,-16
-43,-17
-45,-19
-43,-14
-42,-18
-33,-18
-23,-18
-9,-20
0,-20
9,-20
16,-22
15,-19
16,-29
19,-38
7,-54
-27,-76
-81,-100
-135,-118
-170,-125
-198,-131
-208,-131
-207,-135
-198,-132
-178,-123
-145,-119
-108,-111
-85,-107
-67,-93
-61,-75
-67,-45
-66,-22
-64,-8
-66,-6
-70,-7
-63,-6
-64,-9
-66,-6
-64,-6
-62,-6
-64,-6
-59,-5
-60,-6
-62,-8
-66,-6
-64,-6
-62,-7
-57,-8
-56,-8
-58,-8
-59,-4
-60,-8
-56,-3
-56,0
-58,-3
-59,-5
-56,-4
-56,-6
-54,-6
-52,-4
-57,0
-51,1
-48,0
-45,0
-50,-2
-47,0
-47,2
-44,4
-44,6
-42,4
-40,8
-41,7
-38,10
-40,10
-34,7
-38,7
-39,5
-38,4
-40,3
-45,2
-49,-1
-52,-6
-56,-15
-57,-18
-58,-20
-63,-25
-65,-28
-66,-31
-70,-27
-71,-31
-70,-32
-73,-31
-72,-29
-76,-32
-69,-32
-74,-33
-74,-32
-77,-30
-76,-33
-75,-31
-77,-29
-81,-29
-78,-34
-79,-38
-79,-39
-82,-34
-82,-38
-82,-34
-83,-34
-90,-36
-81,-33
-82,-34
-85,-37
-80,-35
-82,-38
-84,-35
-85,-38
-85,-36
-85,-38
-88,-32
-87,-34
-85,-40
-86,-37
-87,-40
-88,-41
-89,-38
-86,-40
-83,-36
-82,-36
-80,-37
-83,-37
-82,-39
-79,-39
-77,-42
-68,-36
-61,-40
-58,-35
-52,-34
-47,-36
-48,-34
-46,-38
-48,-35
-56,-40
-59,-41
-66,-40
-70,-40
-78,-38
-81,-43
-82,-45
-90,-43
-97,-41
-96,-45
-99,-45
-98,-40
-99,-45
-100,-44
-99,-44
-105,-42
-102,-43
-105,-41
-106,-45
-104,-44
-102,-45
-103,-43
-102,-44
-103,-46
-104,-46
-103,-43
-104,-49
-100,-48
-91,-47
-77,-49
-63,-44
-52,-45
-51,-44
-42,-46
-42,-48
-40,-51
-44,-69
-57,-86
-99,-106
-152,-132
-195,-145
-228,-151
-252,-150
-264,-150
-265,-152
-247,-144
-219,-145
-185,-135
-150,-135
-124,-130
-110,-122
-112,-96
-115,-62
-110,-45
-110,-38
-109,-34
-109,-32
-108,-32
-107,-38
-107,-35
-107,-35
-107,-31
-107,-35
-108,-33
-110,-32
-106,-31
-103,-30
-99,-34
-99,-34
-99,-33
-103,-30
-100,-31
-101,-26
-103,-29
-94,-31
-97,-28
-97,-32
-93,-28
-91,-27
-94,-29
-95,-26
-91,-18
-90,-22
-87,-22
-88,-20
-88,-19
-84,-16
-80,-16
-81,-11
-82,-13
-83,-14
-81,-11
-80,-8
-78,-12
-79,-8
-75,-11
-74,-11
-77,-12
-77,-15
-78,-9
-87,-14
-90,-21
-93,-23
-99,-30
-97,-34
-100,-36
-103,-41
-105,-41
-106,-42
-108,-42
-110,-46
-113,-46
-111,-47
-111,-48
-111,-47
-110,-47
-112,-48
-113,-51
-117,-50
-112,-48
-112,-44
-117,-49
-114,-49
-115,-48
-116,-50
-111,-53
-114,-52
-114,-50
-117,-53
-118,-49
-118,-55
-119,-48
-116,-50
-115,-49
-116,-50
-117,-50
-117,-51
-116,-53
-116,-50
-116,-47
-121,-53
-120,-54
-119,-53
-120,-49
-117,-50
-118,-54
-121,-52
-114,-46
-119,-49
-120,-52
-117,-53
-114,-54
-112,-62
-110,-56
-106,-50
-104,-54
-98,-52
-92,-48
-87,-50
-81,-51
-80,-53
-74,-51
-78,-50
-82,-51
-86,-57
-91,-57
-98,-59
-105,-57
-109,-54
-114,-58
-121,-61
-121,-59
-124,-58
-126,-60
-128,-55
-132,-55
-128,-54
-132,-57
-131,-57
-130,-61
-132,-63
-134,-60
-137,-64
-133,-60
-130,-62
-133,-63
-135,-60
-134,-59
-134,-63
-133,-63
-130,-63
-128,-64
-115,-62
-104,-61
-96,-63
-87,-64
-80,-63
-78,-65
-76,-67
-80,-80
-80,-94
-102,-116
-150,-133
-194,-154
-234,-167
-267,-172
-288,-172
-291,-180
-282,-176
-268,-168
-232,-170
-196,-159
-167,-155
-144,-149
-136,-132
-141,-102
-141,-70
-141,-57
-140,-54
-135,-52
-138,-54
-141,-56
-139,-54
-140,-54
-138,-54
-140,-52
-139,-54
-135,-54
-133,-51
-134,-55
-133,-51
-134,-51
-134,-47
-135,-48
-131,-52
-132,-53
-130,-52
-127,-52
-130,-50
-127,-49
-126,-47
-124,-45
-123,-48
-125,-43
-120,-43
-121,-42
-113,-42
-114,-39
-110,-42
-114,-38
-110,-36
-109,-32
-107,-31
-106,-32
-107,-35
-106,-30
-103,-29
-100,-27
-96,-31
-102,-28
-101,-32
-100,-29
-104,-31
-106,-33
-110,-39
-112,-44
-113,-44
-117,-50
-116,-55
-120,-59
-127,-58
-128,-59
-126,-57
-128,-67
-127,-63
-128,-64
-127,-64
-124,-65
-126,-70
-128,-70
-132,-63
-130,-67
-131,-63
-128,-65
-130,-61
-131,-64
-128,-64
-130,-60
-130,-64
-132,-63
-132,-62
-134,-63
-135,-64
-126,-63
-130,-66
-128,-66
-128,-65
-128,-61
-133,-64
-131,-66
-133,-64
-133,-63
-128,-67
-129,-63
-126,-63
-128,-61
-128,-60
-128,-61
-128,-60
-128,-60
-124,-60
-120,-61
-120,-62
-119,-66
-118,-59
-114,-61
-113,-60
-108,-56
-98,-54
-92,-58
-89,-58
-93,-51
-89,-55
-88,-54
-91,-55
-99,-55
-106,-59
-107,-57
-115,-54
-121,-53
-128,-59
-128,-63
-129,-60
-133,-56
-135,-59
-129,-59
-136,-55
-134,-58
-139,-55
-138,-58
-138,-56
-140,-60
-135,-57
-138,-54
-138,-57
-139,-54
-144,-61
-137,-57
-139,-57
-139,-52
-138,-59
-136,-59
-128,-58
-118,-61
-108,-60
-99,-51
-92,-56
-86,-58
-86,-56
-82,-58
-83,-71
-87,-90
-114,-115
-162,-135
-211,-160
-244,-167
-276,-171
-294,-176
-297,-172
-295,-173
-276,-165
-241,-159
-200,-156
-167,-148
-150,-142
-147,-121
-147,-84
-148,-60
-150,-44
-150,-35
-145,-39
-142,-36
-143,-36
-143,-40
-144,-37
-145,-36
-144,-36
-147,-35
-142,-37
-140,-40
-147,-38
-146,-38
-138,-34
-139,-37
-141,-29
-142,-35
-141,-34
-140,-33
-143,-37
-140,-32
-138,-30
-136,-29
-133,-29
-137,-26
-139,-25
-139,-25
-135,-23
-136,-22
-131,-25
-131,-23
-133,-22
-129,-14
-128,-15
-123,-18
-122,-16
-122,-14
-123,-14
-124,-9
-121,-9
-123,-9
-123,-11
-121,-11
-123,-13
-125,-15
-128,-15
-133,-16
-136,-23
-137,-26
-143,-32
-143,-38
-146,-41
-150,-43
-151,-43
-156,-49
-155,-49
-156,-50
-160,-55
-156,-53
-160,-54
-159,-54
-160,-55
-160,-53
-161,-51
-161,-53
-163,-53
-161,-53
-164,-55
-164,-50
-165,-58
-166,-54
-164,-53
-164,-56
-169,-54
-168,-48
-166,-52
-167,-56
-172,-55
-168,-57
-167,-58
-170,-59
-166,-55
-169,-57
-172,-55
-172,-55
-171,-60
-172,-58
-171,-61
-172,-58
-174,-58
-171,-57
-169,-59
-168,-55
-168,-53
-163,-59
-165,-61
-159,-58
-153,-57
-145,-56
-144,-52
-138,-53
-133,-51
-133,-49
-134,-52
-142,-52
-142,-56
-150,-59
-152,-59
-158,-59
-164,-61
-169,-61
-176,-64
-179,-63
-181,-61
-184,-59
-182,-57
-181,-64
-185,-66
-187,-66
-183,-68
-186,-66
-190,-68
-188,-63
-187,-70
-190,-66
-187,-66
-186,-60
-187,-69
-184,-65
-186,-67
-184,-65
-187,-64
-174,-64
-168,-70
-156,-70
-144,-69
-135,-68
-131,-71
-130,-69
-131,-75
-128,-81
-145,-100
-173,-122
-223,-140
-267,-163
-292,-175
-322,-179
-335,-182
-336,-177
-328,-176
-307,-166
-271,-162
-236,-159
-211,-153
-196,-145
-192,-120
-193,-98
-192,-74
-194,-55
-194,-51
-193,-54
-189,-51
-189,-53
-193,-56
-187,-54
-189,-51
-186,-52
-182,-51
-186,-54
-188,-52
-186,-51
-184,-52
-187,-54
-181,-54
-182,-51
-179,-51
-179,-51
-182,-48
-181,-47
-178,-53
-178,-52
-180,-48
-178,-51
-176,-49
-172,-47
-174,-42
-175,-44
-177,-44
-174,-40
-169,-39
-168,-41
-168,-36
-163,-37
-165,-34
-160,-32
-159,-30
-162,-28
-157,-27
-160,-28
-159,-27
-154,-27
-157,-34
-156,-36
-155,-34
-160,-32
-160,-36
-164,-40
-172,-49
-170,-47
-169,-50
-173,-55
-174,-61
-175,-60
-175,-61
-178,-63
-178,-62
-180,-63
-183,-64
-176,-67
-179,-67
-177,-67
-175,-66
-181,-67
-178,-64
-183,-67
-182,-61
-181,-63
-176,-66
-178,-64
-179,-67
-180,-67
-178,-68
-185,-69
-180,-62
-178,-63
-177,-62
-178,-63
-180,-63
-180,-64
-177,-62
-179,-68
-176,-67
-177,-61
-179,-63
-179,-64
-177,-66
-177,-67
-177,-68
-169,-69
-168,-67
-171,-66
-164,-67
-164,-64
-164,-65
-162,-66
-157,-64
-151,-64
-148,-64
-136,-67
-141,-63
-133,-62
-134,-62
-141,-65
-144,-64
-146,-64
-155,-70
-160,-67
-165,-68
-168,-71
-172,-75
-176,-74
-176,-70
-177,-68
-179,-66
-180,-62
-180,-72
-182,-70
-179,-69
-179,-70
-177,-71
-178,-70
-184,-72
-182,-71
-184,-74
-185,-72
-185,-70
-184,-71
-180,-75
-175,-77
-174,-73
-165,-71
-158,-68
-145,-69
-138,-71
-130,-73
-123,-71
-117,-74
-120,-77
-121,-88
-134,-107
-168,-127
-221,-148
-259,-166
-294,-172
-321,-175
-330,-180
-329,-175
-315,-172
-287,-162
-254,-162
-218,-154
-192,-153
-185,-143
-181,-117
-183,-90
-180,-70
-180,-64
-180,-63
-176,-59
-180,-59
-179,-62
-178,-61
-177,-62
-172,-59
-172,-63
-168,-63
-173,-62
-170,-64
-170,-58
-170,-59
-168,-58
-170,-57
-166,-54
-169,-58
-166,-58
-165,-57
-166,-54
-169,-54
-169,-51
-164,-48
-158,-54
-160,-51
-162,-53
-158,-53
-154,-53
-156,-46
-155,-46
-149,-48
-152,-37
-152,-38
-153,-44
-150,-42
-146,-36
-150,-34
-143,-33
-144,-34
-148,-34
-145,-32
-144,-36
-144,-36
-142,-39
-144,-40
-149,-45
-148,-40
-152,-48
-156,-51
-156,-57
-156,-60
-159,-62
-163,-62
-164,-65
-164,-69
-164,-69
-161,-68
-165,-71
-163,-71
-168,-70
-165,-73
-166,-72
-165,-70
-168,-72
-162,-70
-162,-73
-159,-67
-163,-74
-165,-69
-163,-72
-160,-70
-165,-72
-167,-73
-166,-69
-167,-76
-164,-69
-168,-71
-166,-69
-164,-72
-162,-64
-163,-70
-165,-70
-160,-71
-160,-71
-158,-70
-158,-68
-156,-74
-156,-65
-161,-68
-158,-67
-159,-67
-160,-69
-156,-66
-157,-65
-153,-70
-152,-69
-152,-65
-154,-68
-154,-69
-149,-67
-144,-66
-138,-67
-126,-67
-123,-69
-118,-64
-117,-67
-116,-66
-119,-62
-115,-63
-120,-66
-129,-64
-128,-68
-131,-68
-140,-71
-149,-69
-153,-73
-157,-68
-158,-68
-160,-68
-161,-69
-160,-68
-158,-71
-161,-70
-157,-69
-160,-70
-158,-70
-161,-70
-162,-67
-160,-71
-162,-76
-155,-74
-154,-70
-153,-75
-152,-68
-148,-66
-148,-71
-135,-70
-123,-67
-115,-71
-108,-71
-99,-70
-94,-70
-91,-69
-90,-76
-92,-83
-106,-102
-141,-132
-193,-150
-236,-164
-270,-175
-289,-174
-303,-173
-299,-169
-289,-171
-261,-166
-225,-155
-193,-151
-165,-151
-157,-139
-150,-118
-151,-89
-146,-67
-147,-51
-149,-51
-150,-50
-148,-52
-147,-52
-149,-49
-147,-51
-142,-50
-139,-47
-142,-53
-141,-51
-139,-46
-138,-47
-138,-46
-137,-50
-135,-47
-135,-48
-132,-48
-132,-49
-132,-45
-128,-47
-126,-38
-125,-43
-128,-42
-128,-42
-122,-41
-118,-39
-121,-35
-119,-37
-116,-35
-114,-34
-113,-30
-113,-33
-107,-31
-114,-31
-109,-28
-107,-27
-105,-23
-103,-29
-101,-23
-100,-24
-104,-22
-99,-21
-101,-24
-103,-24
-102,-28
-102,-30
-105,-38
-108,-39
-114,-42
-113,-46
-118,-49
-121,-52
-119,-52
-120,-56
-120,-61
-120,-60
-122,-60
-122,-65
-125,-63
-121,-62
-123,-65
-125,-62
-119,-65
-125,-58
-124,-64
-123,-61
-123,-61
-127,-62
-125,-61
-126,-61
-128,-61
-126,-64
-120,-64
-122,-58
-125,-61
-128,-64
-123,-61
-122,-61
-123,-63
-124,-63
-124,-61
-124,-63
-125,-58
-119,-62
-123,-62
-121,-62
-123,-63
-123,-67
-123,-65
-122,-60
-119,-60
-119,-65
-114,-67
-113,-63
-111,-64
-112,-64
-109,-63
-106,-61
-96,-61
-87,-60
-84,-63
-84,-64
-80,-59
-79,-60
-82,-59
-84,-60
-89,-64
-94,-65
-102,-61
-108,-68
-110,-65
-116,-68
-123,-66
-121,-70
-123,-68
-125,-64
-126,-68
-124,-68
-128,-67
-130,-64
-129,-67
-126,-68
-128,-71
-129,-74
-130,-69
-130,-70
-131,-72
-130,-70
-130,-73
-131,-73
-127,-74
-128,-73
-121,-73
-116,-75
-110,-77
-101,-71
-96,-75
-83,-69
-81,-70
-80,-73
-76,-81
-78,-81
-78,-106
-96,-122
-146,-146
-193,-169
-234,-192
-261,-190
-281,-194
-285,-198
-275,-194
-262,-192
-233,-189
-196,-180
-161,-172
-138,-162
-132,-145
-128,-122
-130,-90
-130,-66
-128,-60
-127,-56
-127,-56
-126,-57
-121,-57
-126,-59
-124,-56
-123,-56
-119,-56
-120,-57
-119,-60
-120,-55
-120,-57
-121,-54
-120,-53
-118,-55
-114,-53
-110,-51
-111,-52
-110,-47
-108,-48
-108,-50
-109,-49
-106,-48
-104,-45
-103,-46
-101,-47
-96,-46
-95,-47
-93,-42
-92,-42
-92,-39
-86,-39
-88,-38
-86,-37
-84,-37
-81,-36
-78,-35
-77,-28
-78,-32
-79,-31
-82,-30
-76,-26
-79,-28
-84,-30
-84,-31
-85,-35
-86,-41
-90,-48
-92,-50
-96,-51
-101,-60
-101,-60
-101,-61
-103,-67
-106,-65
-98,-69
-101,-67
-105,-69
-104,-68
-107,-68
-110,-68
-107,-73
-109,-70
-107,-69
-105,-72
-107,-73
-103,-72
-108,-66
-105,-69
-106,-66
-109,-67
-105,-72
-108,-67
-111,-66
-104,-70
-108,-65
-109,-68
-112,-74
-108,-67
-112,-64
-116,-65
-113,-67
-112,-66
-113,-68
-114,-70
-116,-69
-116,-63
-115,-64
-114,-66
-115,-64
-114,-69
-111,-65
-115,-63
-113,-67
-112,-66
-110,-67
-111,-66
-111,-64
-114,-68
-113,-70
-114,-66
-113,-68
-111,-68
-107,-67
-105,-66
-104,-67
-104,-69
-102,-69
-101,-66
-93,-65
-83,-62
-75,-63
-71,-64
-69,-63
-69,-63
-71,-61
-75,-63
-75,-62
-83,-64
-90,-63
-94,-67
-97,-70
-106,-69
-108,-70
-112,-75
-118,-71
-118,-67
-117,-68
-120,-71
-116,-68
-113,-71
-115,-68
-113,-69
-115,-69
-118,-71
-119,-72
-118,-71
-122,-71
-121,-71
-116,-73
-120,-76
-117,-72
-117,-72
-112,-68
-111,-71
-101,-73
-95,-74
-83,-76
-76,-78
-68,-73
-66,-77
-60,-79
-59,-88
-63,-103
-81,-125
-126,-147
-178,-169
-217,-188
-245,-194
-265,-193
-269,-197
-268,-199
-254,-193
-231,-191
-191,-179
-159,-175
-139,-166
-125,-150
-120,-124
-123,-96
-118,-75
-121,-59
-118,-60
-119,-57
-119,-53
-118,-57
-112,-57
-120,-58
-117,-54
-117,-61
-112,-60
-110,-57
-114,-55
-110,-56
-112,-57
-115,-48
-111,-53
-108,-57
-108,-56
-106,-54
-107,-53
-105,-55
-105,-52
-103,-50
-103,-51
-105,-45
-104,-49
-100,-44
-100,-45
-95,-44
-95,-47
-93,-43
-94,-39
-90,-40
-90,-40
-85,-40
-89,-35
-84,-38
-80,-38
-80,-33
-79,-31
-77,-35
-77,-34
-83,-32
-78,-31
-80,-32
-80,-37
-82,-39
-84,-43
-89,-48
-90,-50
-94,-53
-96,-58
-98,-64
-100,-65
-104,-69
-98,-70
-102,-73
-105,-76
-112,-75
-107,-77
-108,-72
-107,-70
-112,-68
-109,-69
-109,-73
-108,-76
-108,-74
-109,-74
-110,-70
-108,-70
-106,-71
-111,-74
-112,-68
-114,-71
-110,-69
-113,-74
-112,-70
-112,-69
-108,-70
-113,-69
-115,-72
-115,-69
-115,-71
-112,-67
-116,-74
-112,-69
-113,-71
-112,-70
-118,-68
-117,-69
-117,-69
-116,-71
-115,-72
-107,-73
-108,-70
-108,-73
-104,-71
-104,-69
-101,-67
-93,-67
-83,-66
-79,-64
-75,-71
-71,-64
-76,-66
-71,-59
-75,-61
-86,-68
-88,-65
-94,-66
-96,-69
-102,-74
-101,-69
-106,-69
-109,-75
-112,-72
-112,-68
-110,-68
-113,-67
-115,-68
-113,-70
-116,-69
-115,-68
-109,-69
-110,-71
-112,-75
-109,-70
-112,-72
-112,-70
-116,-74
-112,-71
-115,-72
-113,-68
-108,-68
-98,-73
-89,-69
-76,-68
-72,-73
-59,-72
-54,-64
-53,-70
-49,-77
-51,-79
-60,-102
-95,-122
-151,-142
-195,-166
-225,-176
-251,-180
-267,-175
-267,-182
-255,-178
-233,-169
-200,-168
-160,-160
-137,-157
-120,-147
-114,-128
-113,-100
-112,-77
-113,-60
-106,-48
-103,-48
-106,-52
-107,-58
-104,-51
-107,-50
-106,-50
-103,-52
-103,-46
-103,-49
-98,-47
-99,-48
-98,-49
-95,-48
-95,-46
-92,-44
-91,-45
-93,-44
-93,-46
-90,-46
-87,-44
-88,-43
-89,-41
-87,-42
-84,-40
-85,-40
-84,-39
-81,-38
-80,-43
-80,-36
-76,-35
-72,-36
-69,-34
-71,-32
-65,-32
-68,-33
-66,-26
-60,-31
-61,-25
-64,-24
-61,-25
-56,-26
-60,-25
-59,-27
-60,-29
-63,-26
-67,-31
-70,-32
-71,-39
-75,-43
-79,-48
-79,-52
-84,-50
-85,-56
-85,-59
-88,-61
-88,-60
-86,-63
-83,-63
-85,-64
-88,-58
-88,-63
-86,-59
-91,-62
-92,-60
-90,-61
-90,-55
-87,-60
-89,-64
-88,-61
-90,-59
-90,-59
-91,-61
-94,-57
-95,-59
-90,-58
-90,-59
-87,-63
-88,-66
-89,-60
-92,-58
-94,-62
-87,-57
-92,-58
-93,-63
-88,-62
-88,-57
-88,-58
-89,-65
-87,-59
-91,-58
-89,-57
-87,-58
-87,-56
-85,-58
-83,-55
-78,-60
-78,-54
-72,-56
-63,-54
-56,-56
-53,-55
-51,-53
-49,-55
-51,-55
-52,-56
-53,-58
-58,-63
-62,-57
-69,-60
-73,-59
-76,-58
-82,-65
-88,-67
-89,-65
-90,-64
-92,-62
-93,-59
-91,-59
-91,-62
-92,-63
-89,-59
-93,-59
-93,-63
-92,-61
-93,-68
-92,-61
-91,-63
-94,-61
-94,-58
-92,-64
-91,-64
-88,-66
-81,-63
-73,-62
-63,-67
-51,-65
-35,-64
-25,-65
-20,-62
-12,-64
-19,-66
-23,-80
-41,-99
-89,-121
-134,-142
-168,-158
-198,-165
-227,-163
-234,-160
-233,-163
-218,-156
-185,-153
-144,-153
-112,-142
-92,-144
-85,-128
-87,-109
-83,-74
-83,-58
-84,-47
-84,-47
-83,-46
-83,-48
-78,-45
-79,-46
-73,-43
-72,-43
-73,-48
-75,-43
-75,-46
-73,-46
-75,-47
-75,-47
-68,-38
-69,-40
-68,-40
-64,-42
-64,-41
-67,-41
-68,-41
-68,-37
-64,-38
-66,-38
-59,-37
-59,-33
-60,-30
-58,-32
-55,-27
-54,-24
-53,-28
-54,-28
-49,-22
-49,-25
-48,-23
-45,-23
-45,-17
-43,-16
-42,-19
-43,-17
-41,-19
-35,-16
-35,-17
-36,-16
-40,-16
-40,-22
-45,-26
-50,-25
-52,-32
-52,-36
-50,-38
-51,-43
-56,-43
-57,-47
-59,-52
-61,-53
-62,-51
-64,-58
-63,-53
-61,-51
-64,-53
-60,-54
-60,-55
-63,-52
-63,-53
-61,-52
-61,-53
-64,-51
-63,-50
-61,-52
-62,-50
-61,-51
-60,-48
-58,-49
-63,-50
-63,-53
-58,-51
-58,-48
-56,-49
-59,-51
-60,-51
-61,-53
-60,-51
-59,-50
-59,-52
-60,-48
-60,-51
-58,-48
-55,-47
-55,-48
-53,-48
-54,-48
-50,-49
-48,-46
-48,-48
-47,-48
-46,-48
-41,-43
-36,-47
-29,-45
-15,-43
-11,-40
-13,-38
-13,-42
-9,-39
-13,-42
-17,-45
-15,-46
-22,-48
-27,-51
-38,-44
-44,-47
-47,-49
-52,-55
-52,-48
-55,-51
-55,-46
-55,-48
-58,-46
-56,-48
-55,-53
-54,-46
-54,-48
-57,-50
-59,-46
-58,-51
-58,-46
-59,-53
-60,-54
-60,-48
-58,-52
-57,-49
-57,-52
-48,-51
-43,-46
-32,-50
-18,-50
-4,-49
5,-51
12,-51
15,-52
9,-53
7,-63
-2,-79
-35,-97
-86,-119
-131,-143
-164,-150
-191,-148
-212,-146
-206,-150
-191,-149
-163,-141
-128,-135
-92,-129
-68,-126
-59,-120
-57,-103
-60,-73
-57,-52
-56,-40
-56,-34
-52,-32
-55,-34
-52,-36
-50,-33
-50,-32
-51,-31
-51,-30
-48,-30
-46,-32
-43,-34
-43,-34
-46,-29
-47,-35
-46,-31
-44,-30
-43,-30
-42,-29
-44,-26
-44,-29
-41,-30
-42,-31
-40,-28
-38,-22
-33,-24
-34,-22
-32,-25
-32,-23
-26,-22
-33,-21
-32,-19
-30,-21
-25,-21
-26,-18
-22,-13
-25,-12
-23,-10
-24,-12
-23,-11
-23,-8
-18,-6
-19,-12
-17,-15
-21,-14
-24,-16
-26,-15
-32,-19
-34,-25
-38,-29
-39,-30
-40,-34
-42,-40
-46,-41
-49,-40
-48,-39
-48,-40
-49,-43
-49,-45
-48,-46
-49,-47
-55,-47
-50,-49
-48,-50
-50,-46
-52,-51
-49,-50
-52,-51
-53,-50
-52,-47
-51,-46
-52,-46
-52,-48
-53,-43
-52,-43
-56,-45
-52,-43
-53,-42
-54,-46
-54,-44
-52,-42
-53,-45
-54,-50
-56,-43
-56,-46
-60,-44
-59,-46
-60,-46
-58,-45
-54,-46
-51,-43
-55,-43
-52,-44
-48,-46
-51,-42
-50,-45
-45,-44
-48,-40
-40,-39
-37,-36
-29,-40
-24,-37
-18,-37
-16,-38
-16,-40
-15,-36
-16,-36
-24,-36
-31,-38
-35,-39
-39,-41
-45,-41
-49,-42
-58,-43
-61,-40
-65,-40
-67,-40
-64,-37
-65,-39
-65,-37
-68,-41
-68,-39
-69,-39
-68,-43
-68,-37
-72,-39
-73,-41
-69,-41
-71,-38
-69,-36
-70,-42
-73,-40
-73,-37
-70,-36
-64,-35
-57,-39
-47,-38
-37,-38
-21,-38
-16,-38
-8,-36
-8,-37
-13,-38
-19,-52
-37,-69
-85,-93
-134,-115
-172,-135
-203,-140
-225,-137
-233,-139
-224,-135
-210,-131
-178,-134
-137,-126
-104,-120
-87,-118
-81,-103
-83,-80
-80,-54
-84,-31
-80,-18
-80,-15
-80,-20
-77,-20
-79,-18
-78,-16
-79,-23
-76,-15
-81,-18
-79,-16
-76,-14
-79,-13
-75,-16
-74,-12
-70,-9
-72,-14
-73,-13
-71,-12
-70,-10
-70,-8
-69,-11
-70,-6
-67,-6
-66,-4
-64,-3
-62,-4
-63,-4
-61,-3
-60,-1
-63,3
-55,6
-56,6
-56,8
-54,9
-52,7
-51,8
-50,11
-45,14
-45,13
-44,15
-48,17
-46,14
-44,14
-44,9
-46,6
-48,8
-55,5
-57,4
-60,-6
-62,-7
-74,-9
-72,-12
-71,-18
-73,-24
-72,-23
-73,-26
-75,-22
-77,-23
-82,-21
-80,-24
-82,-24
-79,-32
-80,-29
-79,-26
-79,-24
-80,-28
-86,-22
-85,-25
-86,-23
-84,-28
-84,-24
-85,-25
-82,-22
-81,-31
-86,-28
-86,-22
-84,-23
-85,-22
-85,-25
-89,-26
-86,-27
-87,-29
-86,-27
-84,-26
-86,-25
-88,-24
-90,-24
-87,-26
-89,-27
-91,-28
-89,-34
-86,-34
-84,-31
-80,-32
-85,-26
-82,-24
-79,-28
-77,-29
-77,-32
-70,-27
-59,-28
-57,-24
-54,-25
-56,-27
-50,-22
-52,-23
-56,-24
-61,-27
-70,-28
-74,-27
-76,-30
-82,-31
-87,-33
-91,-33
-99,-36
-105,-33
-104,-33
-103,-31
-104,-31
-105,-38
-102,-37
-105,-33
-103,-37
-104,-36
-108,-36
-107,-36
-106,-31
-108,-40
-110,-38
-110,-39
-111,-36
-109,-35
-109,-39
-104,-39
-97,-36
-92,-37
-80,-38
-69,-37
-63,-35
-58,-39
-60,-38
-56,-44
-61,-51
-70,-68
-105,-88
-157,-110
-200,-135
-235,-146
-260,-150
-270,-149
-274,-154
-265,-153
-243,-146
-203,-139
-163,-138
-136,-128
-123,-124
-118,-103
-118,-77
-119,-47
-118,-31
-117,-23
-117,-24
-116,-25
-114,-23
-117,-24
-115,-22
-110,-24
-113,-27
-110,-23
-110,-18
-112,-21
-113,-23
-111,-19
-113,-20
-111,-23
-109,-23
-108,-21
-104,-22
-106,-21
-106,-21
-104,-21
-107,-17
-106,-13
-105,-18
-102,-14
-100,-12
-99,-14
-95,-14
-92,-9
-93,-10
-94,-13
-95,-7
-94,-4
-92,-6
-90,-6
-88,-4
-88,-2
-85,-3
-86,3
-84,0
-85,0
-83,0
-85,-1
-87,0
-87,-6
-89,-6
-96,-9
-98,-16
-99,-15
-103,-21
-110,-25
-109,-30
-111,-33
-114,-37
-111,-38
-111,-39
-110,-39
-113,-38
-114,-39
-114,-41
-113,-39
-117,-37
-118,-37
-117,-39
-112,-40
-117,-41
-117,-38
-119,-43
-118,-39
-117,-37
-117,-38
-118,-38
-120,-40
-118,-39
-118,-41
-118,-41
-116,-37
-118,-37
-120,-37
-116,-42
-124,-38
-115,-42
-114,-36
-117,-37
-117,-38
-119,-42
-118,-39
-119,-36
-117,-37
-116,-40
-121,-41
-118,-42
-117,-41
-118,-38
-117,-36
-116,-38
-115,-38
-115,-38
-110,-37
-109,-36
-110,-36
-110,-37
-105,-36
-104,-36
-97,-35
-86,-36
-87,-34
-81,-30
-81,-34
-78,-33
-82,-31
-81,-28
-85,-30
-86,-36
-93,-32
-96,-35
-105,-31
-112,-35
-118,-36
-120,-39
-122,-33
-122,-36
-122,-38
-121,-36
-125,-34
-125,-36
-126,-37
-126,-36
-128,-36
-129,-39
-126,-42
-122,-36
-127,-40
-125,-39
-124,-36
-128,-37
-131,-40
-129,-37
-124,-39
-119,-40
-109,-38
-98,-40
-87,-42
-78,-46
-73,-36
-71,-38
-71,-39
-69,-46
-73,-61
-89,-79
-130,-98
-181,-123
-217,-150
-249,-156
-268,-155
-279,-156
-281,-154
-275,-157
-248,-149
-209,-143
-175,-139
-150,-134
-140,-123
-140,-102
-139,-73
-133,-48
-136,-32
-136,-25
-136,-29
-132,-28
-130,-24
-127,-29
-131,-26
-128,-27
-127,-23
-131,-18
-125,-25
-124,-23
-126,-21
-127,-27
-122,-24
-123,-20
-125,-21
-126,-23
-124,-18
-121,-21
-121,-21
-121,-25
-116,-21
-115,-17
-113,-19
-114,-17
-116,-16
-116,-16
-117,-15
-116,-14
-113,-11
-112,-15
-109,-9
-109,-5
-109,-6
-107,-7
-106,-1
-106,-2
-100,-1
-104,0
-101,-4
-102,0
-98,0
-99,-1
-99,-2
-102,-3
-108,-6
-112,-7
-112,-9
-112,-13
-116,-16
-123,-25
-124,-27
-128,-30
-128,-34
-127,-36
-128,-33
-130,-42
-134,-40
-133,-40
-131,-40
-133,-38
-134,-43
-135,-41
-137,-45
-133,-44
-133,-42
-134,-41
-138,-41
-136,-39
-138,-39
-139,-42
-137,-42
-134,-45
-139,-38
-137,-42
-140,-43
-138,-41
-140,-42
-140,-44
-140,-41
-138,-43
-139,-43
-137,-43
-141,-41
-142,-42
-140,-42
-139,-46
-141,-42
-140,-44
-138,-44
-139,-42
-136,-42
-136,-42
-135,-42
-135,-46
-132,-42
-128,-43
-122,-38
-110,-38
-104,-39
-102,-37
-101,-40
-99,-38
-104,-36
-107,-34
-109,-41
-112,-39
-121,-45
-128,-41
-128,-46
-135,-45
-142,-47
-148,-44
-149,-47
-151,-52
-153,-45
-149,-43
-149,-47
-151,-44
-149,-49
-153,-42
-152,-42
-151,-40
-149,-43
-152,-42
-152,-43
-149,-42
-149,-48
-152,-48
-152,-45
-150,-49
-148,-49
-137,-49
-128,-48
-115,-46
-104,-47
-95,-48
-88,-48
-87,-48
-88,-52
-86,-53
-92,-64
-123,-88
-169,-106
-220,-128
-252,-142
-281,-151
-297,-151
-302,-151
-294,-150
-278,-145
-242,-143
-206,-135
-175,-133
-157,-129
-150,-118
-148,-95
-146,-65
-146,-44
-145,-35
-148,-33
-144,-33
-145,-35
-144,-35
-144,-31
-143,-32
-142,-31
-139,-33
-142,-33
-139,-33
-140,-31
-138,-29
-138,-28
-133,-33
-137,-31
-133,-33
-133,-29
-132,-29
-128,-30
-132,-27
-134,-27
-130,-24
-128,-23
-126,-26
-126,-24
-125,-24
-122,-23
-123,-20
-115,-18
-119,-14
-117,-13
-116,-17
-113,-14
-112,-18
-110,-10
-107,-10
-110,-7
-106,-9
-106,-10
-108,-4
-102,-5
-106,-7
-106,-4
-109,-11
-108,-12
-109,-15
-114,-13
-118,-11
-124,-20
-124,-26
-127,-24
-127,-33
-129,-33
-131,-36
-131,-36
-130,-37
-130,-32
-130,-37
-128,-41
-133,-37
-133,-37
-135,-40
-130,-42
-131,-40
-133,-40
-136,-39
-131,-40
-132,-40
-132,-38
-133,-38
-135,-38
-130,-38
-131,-38
-128,-39
-131,-35
-130,-39
-130,-37
-128,-39
-133,-40
-131,-40
-132,-39
-133,-39
-128,-43
-132,-42
-128,-42
-130,-40
-130,-37
-127,-32
-130,-32
-127,-40
-124,-41
-120,-40
-119,-44
-117,-40
-117,-40
-115,-40
-109,-37
-104,-40
-93,-36
-90,-37
-88,-40
-86,-38
-86,-34
-87,-35
-95,-40
-102,-35
-107,-43
-112,-39
-114,-39
-120,-44
-122,-47
-126,-40
-130,-40
-131,-41
-135,-40
-134,-37
-134,-39
-135,-44
-133,-45
-134,-44
-133,-48
-135,-43
-133,-43
-134,-44
-130,-48
-135,-44
-134,-45
-134,-42
-137,-48
-131,-47
-127,-49
-124,-45
-117,-47
-104,-44
-91,-46
-83,-44
-75,-46
-69,-45
-67,-47
-72,-53
-75,-62
-103,-82
-147,-105
-194,-125
-229,-134
-259,-138
-280,-145
-285,-143
-278,-141
-256,-142
-224,-134
-187,-132
-159,-127
-140,-123
-137,-112
-136,-84
-136,-59
-128,-43
-135,-34
-133,-33
-133,-36
-131,-36
-127,-32
-128,-34
-128,-34
-127,-33
-133,-33
-130,-39
-127,-36
-124,-34
-124,-32
-123,-30
-125,-31
-123,-34
-122,-33
-121,-32
-120,-29
-120,-32
-119,-30
-113,-28
-115,-29
-113,-25
-113,-28
-113,-27
-112,-28
-109,-26
-108,-27
-107,-26
-103,-23
-107,-20
-105,-21
-102,-21
-103,-15
-102,-16
-102,-22
-96,-13
-95,-12
-94,-13
-94,-15
-92,-13
-95,-14
-96,-13
-99,-16
-96,-18
-99,-21
-102,-25
-106,-24
-112,-31
-109,-34
-109,-36
-113,-36
-114,-36
-112,-42
-122,-44
-119,-44
-118,-44
-118,-48
-123,-48
-121,-49
-118,-46
-120,-45
-117,-48
-119,-45
-117,-45
-120,-47
-117,-50
-114,-43
-116,-48
-117,-44
-119,-45
-119,-43
-115,-43
-119,-41
-119,-45
-118,-40
-115,-47
-112,-44
-116,-39
-117,-44
-118,-44
-116,-40
-119,-43
-116,-45
-120,-43
-116,-44
-115,-46
-115,-46
-112,-42
-108,-41
-106,-45
-103,-40
-104,-42
-101,-45
-95,-46
-90,-41
-81,-38
-78,-40
-70,-36
-72,-37
-68,-38
-66,-35
-66,-36
-72,-39
-77,-41
-80,-42
-88,-46
-91,-47
-101,-44
-106,-42
-111,-43
-113,-46
-112,-43
-112,-39
-110,-42
-113,-44
-113,-43
-112,-41
-114,-42
-112,-44
-113,-40
-113,-42
-114,-40
-113,-39
-108,-36
-110,-41
-114,-37
-109,-40
-107,-39
-111,-40
-104,-41
-96,-41
-82,-40
-69,-40
-56,-39
-48,-42
-43,-38
-45,-39
-43,-41
-47,-49
-67,-67
-110,-90
-157,-111
-190,-128
-223,-136
-245,-137
-256,-137
-254,-134
-240,-136
-206,-132
-174,-123
-135,-121
-112,-117
-104,-106
-108,-87
-108,-61
-106,-41
-104,-24
-104,-22
-101,-21
-98,-23
-97,-26
-100,-21
-96,-24
-97,-23
-97,-26
-96,-17
-94,-23
-95,-23
-97,-22
-91,-23
-90,-19
-88,-21
-87,-20
-91,-21
-87,-18
-87,-17
-84,-17
-83,-17
-84,-16
-82,-18
-82,-18
-77,-16
-77,-12
-75,-10
-79,-11
-77,-11
-75,-7
-76,-5
-72,-7
-68,-7
-63,-7
-65,0
-64,1
-64,0
-63,-2
-58,-4
-58,1
-62,-2
-58,1
-57,-1
-60,-3
-60,-4
-68,-12
-72,-13
-75,-13
-77,-18
-79,-24
-84,-23
-83,-23
-81,-28
-85,-33
-86,-33
-88,-37
-87,-39
-87,-34
-89,-38
-84,-38
-86,-40
-88,-42
-82,-39
-86,-37
-85,-34
-86,-36
-86,-35
-87,-38
-87,-33
-84,-37
-88,-37
-85,-37
-89,-36
-86,-35
-91,-38
-89,-32
-84,-36
-86,-34
-86,-35
-88,-39
-87,-37
-90,-35
-85,-41
-83,-37
-87,-33
-87,-37
-85,-36
-85,-35
-83,-38
-83,-36
-84,-40
-80,-36
-79,-38
-76,-38
-74,-38
-76,-37
-75,-37
-70,-39
-62,-38
-48,-38
-45,-37
-42,-35
-40,-40
-36,-33
-42,-36
-44,-39
-50,-39
-57,-43
-64,-39
-66,-43
-70,-45
-77,-46
-84,-46
-85,-46
-87,-45
-87,-42
-87,-37
-85,-41
-86,-39
-86,-45
-89,-43
-91,-42
-91,-37
-90,-43
-89,-42
-88,-39
-87,-42
-84,-44
-84,-41
-83,-43
-87,-39
-86,-40
-82,-40
-76,-38
-66,-39
-53,-42
-40,-42
-29,-39
-20,-42
-18,-41
-21,-43
-18,-49
-28,-62
-61,-86
-113,-109
-157,-122
-195,-133
-224,-138
-239,-133
-242,-136
-233,-143
-208,-133
-171,-126
-131,-123
-107,-118
-93,-114
-91,-97
-92,-72
-88,-47
-86,-28
-83,-23
-81,-24
-83,-21
-83,-18
-78,-21
-80,-22
-80,-23
-78,-23
-76,-20
-77,-24
-77,-18
-72,-20
-77,-17
-74,-23
-73,-21
-72,-15
-69,-19
-67,-20
-64,-18
-66,-13
-61,-14
-60,-14
-62,-12
-61,-9
-61,-9
-60,-11
-58,-11
-56,-6
-56,-5
-52,-2
-54,-1
-50,0
-50,-7
-47,-3
-46,-2
-43,2
-42,3
-44,7
-40,4
-42,1
-43,7
-42,7
-40,6
-40,7
-40,3
-41,-1
-47,0
-49,-4
-53,-2
-56,-12
-61,-12
-64,-18
-64,-17
-64,-21
-65,-25
-65,-27
-63,-26
-64,-27
-63,-21
-64,-24
-61,-28
-61,-24
-64,-24
-66,-22
-62,-23
-65,-20
-63,-22
-66,-21
-64,-19
-64,-21
-66,-22
-64,-22
-62,-20
-62,-22
-63,-23
-60,-27
-64,-22
-61,-18
-63,-18
-64,-23
-61,-20
-63,-22
-61,-22
-60,-24
-65,-23
-63,-22
-64,-21
-64,-26
-59,-23
-61,-20
-61,-16
-62,-20
-61,-19
-54,-24
-51,-21
-52,-21
-48,-18
-49,-23
-52,-22
-45,-20
-40,-19
-29,-16
-22,-16
-15,-20
-15,-23
-17,-15
-15,-16
-21,-16
-25,-13
-30,-21
-36,-22
-41,-20
-43,-27
-49,-26
-48,-24
-57,-22
-58,-24
-61,-21
-63,-22
-60,-16
-61,-20
-62,-22
-61,-24
-58,-23
-58,-22
-63,-20
-64,-24
-64,-21
-63,-20
-61,-16
-63,-21
-59,-22
-59,-23
-58,-23
-56,-23
-51,-25
-48,-22
-35,-23
-16,-23
-8,-24
6,-20
12,-27
8,-26
10,-28
6,-37
-11,-52
-47,-72
-102,-95
-143,-112
-178,-120
-204,-125
-214,-124
-211,-125
-198,-126
-169,-121
-131,-118
-97,-104
-69,-106
-56,-98
-59,-83
-56,-57
-55,-32
-56,-14
-55,-10
-53,-11
-53,-6
-56,-4
-54,-9
-46,-7
-48,-10
-48,-8
-46,-8
-46,-8
-44,-9
-45,-6
-46,-2
-46,-9
-43,-3
-40,-7
-39,-7
-43,-4
-40,-6
-36,-2
-36,-3
-40,-2
-37,-1
-36,0
-34,-4
-34,-2
-27,-2
-26,1
-22,2
-24,1
-24,4
-25,7
-21,3
-17,9
-16,11
-12,9
-12,6
-12,10
-10,12
-10,15
-9,16
-10,15
-11,17
-10,10
-11,8
-19,3
-18,1
-19,1
-24,-1
-30,-8
-29,-9
-37,-10
-32,-14
-37,-15
-35,-20
-34,-19
-40,-25
-40,-20
-42,-22
-42,-24
-42,-22
-43,-22
-44,-23
-42,-24
-42,-23
-46,-28
-42,-21
-43,-20
-43,-20
-44,-24
-41,-22
-41,-24
-42,-24
-40,-26
-41,-26
-44,-20
-43,-21
-43,-20
-44,-21
-39,-17
-39,-21
-38,-22
-39,-25
-40,-21
-39,-24
-37,-24
-40,-23
-41,-25
-39,-20
-41,-17
-38,-21
-40,-20
-37,-21
-34,-24
-34,-24
-35,-21
-37,-23
-36,-24
-29,-21
-27,-20
-30,-15
-26,-18
-21,-20
-14,-18
-3,-20
1,-20
8,-17
6,-17
7,-14
8,-16
2,-18
0,-18
-7,-21
-5,-22
-12,-24
-16,-22
-27,-20
-28,-26
-33,-22
-38,-22
-34,-19
-33,-20
-32,-21
-38,-21
-34,-24
-34,-24
-35,-24
-36,-27
-35,-26
-41,-24
-41,-21
-42,-25
-37,-23
-34,-24
-36,-21
-36,-25
-33,-24
-32,-23
-21,-21
-12,-22
-2,-25
5,-24
19,-22
23,-24
26,-24
21,-24
20,-31
14,-50
-12,-70
-64,-91
-110,-117
-151,-128
-177,-131
-190,-130
-193,-135
-181,-134
-162,-128
-123,-119
-86,-116
-58,-115
-44,-106
-37,-92
-37,-64
-34,-30
-35,-10
-35,0
-31,-5
-34,0
-32,-4
-32,-7
-31,-8
-28,-9
-25,-8
-25,-5
-28,-2
-27,0
-24,4
-24,1
-23,-4
-24,-7
-22,-6
-22,0
-17,-3
-18,-3
-21,3
-17,3
-17,3
-20,1
-14,0
-10,0
-9,5
-12,9
-7,7
-6,10
-5,3
-4,8
-3,11
1,14
2,16
3,14
3,17
7,23
10,26
7,21
11,26
11,23
10,19
9,28
10,25
8,21
6,15
5,17
0,20
-6,10
-5,0
-11,-10
-17,-12
-12,-9
-20,-13
-18,-12
-17,-11
-18,-11
-23,-6
-22,-9
-24,-10
-24,-3
-27,-7
-29,-11
-29,-13
-30,-11
-26,-13
-25,-7
-26,-5
-28,-6
-30,-5
-33,-8
-35,-14
-31,-15
-30,-11
-29,-19
-29,-16
-29,-19
-29,-12
-28,-14
-34,-16
-30,-13
-30,-13
-28,-12
-26,-12
-27,-9
-28,-12
-31,-12
-33,-13
-31,-7
-26,-6
-25,-10
-17,-13
-15,-12
-11,-13
-10,-11
-9,-17
-9,-16
-3,-13
2,-17
9,-13
13,-6
14,-9
17,-13
20,-11
17,-13
10,-13
6,-11
-4,-12
-12,-14
-16,-20
-19,-21
-21,-14
-26,-12
-31,-12
-32,-23
-33,-35
-37,-40
-35,-27
-39,-21
-42,-30
-44,-37
-40,-42
-42,-38
-41,-32
-42,-32
-43,-33
-47,-33
-47,-39
-51,-30
-51,-30
-50,-36
-47,-35
-44,-33
-36,-35
-23,-35
-14,-36
-7,-35
3,-30
2,-28
3,-26
8,-35
8,-53
-4,-63
-30,-82
-76,-113
-119,-139
-154,-153
-180,-155
-195,-149
-201,-151
-196,-153
-181,-149
-154,-137
-122,-129
-97,-123
-73,-115
-64,-111
-59,-84
-60,-54
-63,-27
-60,-21
-56,-27
-54,-24
-55,-26
-51,-22
-54,-16
-54,-18
-59,-22
-56,-22
-55,-22
-55,-22
-52,-24
-50,-25
-48,-18
-46,-18
-47,-22
-48,-19
-47,-16
-44,-20
-44,-25
-42,-24
-44,-22
-39,-23
-42,-21
-39,-19
-39,-20
-37,-13
-32,-12
-37,-10
-32,-9
-33,-4
-30,-5
-24,-5
-29,-5
-24,-4
-21,-4
-18,-2
-21,2
-18,-5
-15,-5
-12,-5
-14,2
-14,5
-19,7
-17,7
-21,0
-25,-5
-27,-5
-28,-4
-31,-12
-33,-26
-37,-33
-38,-33
-39,-28
-44,-31
-48,-36
-48,-32
-50,-38
-50,-35
-48,-42
-50,-36
-50,-40
-50,-37
-53,-36
-51,-36
-52,-39
-52,-37
-52,-38
-52,-41
-54,-41
-56,-45
-52,-36
-49,-38
-49,-36
-50,-32
-48,-37
-50,-38
-51,-35
-52,-37
-51,-38
-51,-37
-48,-36
-48,-40
-51,-40
-49,-38
-49,-39
-46,-38
-49,-33
-46,-32
-46,-39
-46,-44
-44,-41
-42,-36
-37,-34
-38,-37
-38,-36
-30,-33
-26,-36
-20,-34
-14,-31
-10,-34
-8,-29
-5,-35
-11,-39
-10,-35
-16,-34
-20,-34
-22,-33
-28,-39
-33,-45
-37,-43
-42,-48
-47,-42
-49,-42
-47,-37
-55,-37
-54,-43
-54,-49
-56,-47
-56,-44
-56,-45
-53,-40
-55,-40
-57,-44
-56,-43
-56,-45
-57,-44
-56,-50
-52,-49
-51,-47
-50,-48
-47,-44
-43,-44
-36,-47
-24,-48
-19,-52
-18,-50
-12,-48
-11,-50
-13,-57
-18,-58
-27,-73
-49,-92
-84,-127
-118,-145
-147,-156
-171,-156
-183,-158
-185,-160
-183,-147
-169,-143
-149,-138
-116,-139
-92,-132
-72,-131
-58,-117
-55,-85
-53,-61
-52,-38
-50,-30
-52,-25
-56,-26
-52,-23
-51,-21
-47,-23
-47,-26
-43,-25
-48,-22
-45,-24
-46,-27
-46,-28
-44,-29
-43,-29
-44,-26
-44,-26
-38,-23
-43,-25
-38,-23
-36,-22
-37,-23
-37,-17
-41,-19
-37,-19
-34,-16
-32,-12
-28,-14
-31,-8
-31,-10
-26,-11
-25,-11
-21,-6
-22,-2
-25,-1
-20,0
-18,-6
-14,-11
-13,-12
-16,-5
-12,-6
-14,-5
-14,-6
-16,-4
-15,-3
-15,-6
-20,-7
-19,-8
-24,-14
-31,-22
-35,-24
-40,-33
-39,-32
-43,-33
-44,-35
-46,-37
-46,-35
-45,-39
-43,-46
-47,-41
-49,-39
-48,-39
-48,-37
-50,-41
-47,-42
-47,-45
-45,-36
-46,-44
-47,-43
-50,-39
-53,-39
-45,-38
-49,-41
-50,-38
-48,-35
-48,-35
-46,-32
-51,-36
-52,-37
-48,-35
-48,-32
-49,-31
-47,-30
-52,-35
-48,-34
-49,-36
-48,-36
-48,-35
-47,-36
-49,-36
-49,-42
-45,-45
-44,-48
-41,-44
-38,-48
-36,-47
-30,-51
-27,-52
-25,-49
-19,-45
-17,-44
-16,-49
-15,-59
-17,-61
-20,-61
-20,-64
-24,-66
-28,-61
-33,-64
-34,-73
-41,-71
-45,-75
-47,-75
-47,-75
-51,-71
-53,-71
-52,-76
-57,-84
-58,-88
-58,-92
-60,-91
-57,-89
-58,-97
-59,-97
-62,-95
-60,-96
-57,-94
-55,-92
-65,-101
-54,-103
-57,-107
-53,-106
-51,-112
-40,-108
-32,-112
-27,-107
-22,-111
-19,-107
-20,-108
-20,-110
-26,-122
-29,-138
-52,-159
-83,-181
-122,-207
-153,-228
-172,-241
-190,-232
-198,-229
-196,-225
-184,-224
-159,-212
-122,-209
-93,-204
-70,-196
-64,-184
-64,-162
-64,-134
-58,-113
-64,-104
-56,-98
-58,-96
-57,-104
-54,-112
-55,-111
-56,-111
-57,-112
-54,-118
-58,-116
-58,-111
-48,-111
-50,-111
-52,-102
-51,-111
-54,-110
-54,-109
-52,-108
-51,-109
-46,-106
-45,-96
-48,-102
-44,-106
-42,-109
-38,-102
-35,-101
-39,-101
-43,-101
-37,-101
-38,-105
-36,-100
-32,-96
-32,-93
-31,-93
-31,-98
-29,-91
-23,-85
-24,-79
-24,-80
-21,-84
-21,-87
-23,-90
-21,-96
-23,-95
-31,-88
-34,-96
-36,-95
-40,-99
-38,-105
-40,-103
-46,-114
-53,-117
-52,-121
-54,-122
-55,-127
-56,-124
-54,-127
-57,-117
-55,-118
-56,-128
-57,-135
-61,-128
-61,-130
-59,-128
-61,-128
-63,-128
-64,-133
-64,-125
-66,-129
-65,-131
-58,-131
-62,-128
-59,-126
-62,-125
-64,-130
-66,-134
-68,-128
-68,-131
-63,-126
-64,-128
-63,-127
-67,-127
-62,-134
-66,-138
-66,-131
-68,-128
-69,-132
-69,-130
-69,-131
-66,-128
-63,-126
-60,-122
-59,-127
-62,-131
-58,-132
-51,-129
-41,-122
-33,-120
-28,-126
-25,-121
-27,-128
-27,-123
-31,-124
-34,-125
-42,-119
-56,-121
-63,-124
-67,-127
-76,-133
-78,-132
-83,-135
-81,-134
-90,-134
-91,-134
-93,-130
-93,-130
-89,-128
-90,-130
-86,-133
-91,-132
-93,-134
-88,-137
-92,-136
-93,-137
-86,-136
-86,-135
-88,-127
-88,-132
-85,-139
-84,-144
-75,-141
-59,-136
-44,-136
-35,-134
-19,-137
-17,-141
-20,-135
-18,-144
-20,-160
-30,-181
-75,-198
-134,-227
-180,-248
-215,-260
-239,-255
-246,-262
-244,-253
-236,-244
-213,-232
-178,-226
-143,-223
-112,-217
-99,-215
-97,-200
-96,-175
-93,-147
-90,-128
-88,-116
-93,-122
-95,-133
-93,-137
-93,-138
-95,-128
-96,-119
-95,-122
-93,-122
-86,-123
-88,-120
-87,-121
-86,-128
-80,-120
-82,-114
-83,-116
-81,-114
-77,-112
-75,-118
-77,-131
-75,-131
-73,-124
-77,-125
-77,-124
-76,-123
-70,-118
-71,-115
-68,-113
-72,-114
-68,-111
-65,-112
-63,-112
-59,-109
-58,-101
-57,-100
-55,-115
-56,-119
-54,-115
-53,-113
-51,-110
-51,-109
-46,-107
-52,-102
-50,-102
-57,-108
-61,-121
-63,-128
-67,-129
-69,-128
-71,-131
-77,-125
-76,-126
-80,-137
-79,-142
-81,-145
-85,-151
-82,-153
-81,-149
-82,-148
-81,-143
-85,-137
-89,-142
-85,-149
-86,-147
-84,-139
-89,-132
-92,-143
-94,-153
-87,-149
-80,-140
-83,-133
-87,-136
-88,-145
-92,-143
-92,-136
-91,-132
-88,-135
-88,-133
-88,-128
-88,-128
-86,-135
-90,-135
-94,-132
-93,-128
-91,-128
-92,-121
-83,-123
-84,-120
-83,-128
-79,-130
-82,-137
-77,-133
-75,-125
-73,-117
-65,-121
-60,-121
-52,-113
-50,-112
-50,-106
-54,-118
-55,-126
-62,-130
-64,-127
-68,-124
-74,-122
-81,-118
-89,-121
-90,-126
-93,-131
-102,-131
-107,-123
-108,-128
-107,-129
-106,-136
-105,-142
-107,-149
-108,-152
-111,-154
-106,-148
-112,-140
-110,-138
-113,-143
-116,-148
-114,-144
-117,-139
-115,-133
-113,-128
-109,-131
-110,-127
-105,-131
-98,-128
-84,-127
-71,-127
-63,-122
-55,-130
-52,-127
-59,-126
-67,-131
-67,-141
-94,-162
-139,-188
-184,-204
-218,-215
-249,-220
-266,-220
-272,-211
-263,-212
-241,-204
-212,-201
-172,-190
-142,-189
-125,-184
-120,-169
-117,-149
-119,-122
-116,-106
-114,-94
-114,-105
-117,-115
-116,-107
-113,-100
-112,-100
-111,-96
-106,-95
-106,-97
-106,-96
-104,-97
-104,-93
-108,-96
-103,-99
-105,-96
-101,-88
-99,-88
-100,-91
-97,-99
-92,-99
-92,-96
-94,-90
-91,-88
-91,-85
-92,-85
-89,-83
-84,-80
-83,-78
-84,-79
-80,-85
-80,-85
-77,-85
-74,-80
-72,-74
-72,-69
-75,-68
-69,-76
-66,-79
-67,-74
-66,-72
-64,-64
-66,-62
-67,-59
-66,-64
-67,-68
-72,-73
-74,-75
-75,-82
-80,-76
-82,-83
-86,-86
-87,-88
-90,-95
-90,-96
-91,-98
-94,-99
-96,-99
-96,-93
-94,-92
-100,-90
-95,-97
-96,-102
-96,-102
-95,-110
-94,-112
-95,-108
-93,-108
-94,-110
-90,-108
-95,-103
-92,-106
-95,-104
-98,-104
-96,-106
-98,-101
-100,-101
-94,-100
-95,-102
-92,-105
-92,-101
-95,-101
-95,-98
-95,-103
-98,-109
-97,-106
-95,-101
-94,-98
-93,-103
-91,-109
-88,-107
-82,-98
-83,-102
-80,-92
-79,-98
-72,-101
-65,-106
-60,-106
-59,-105
-52,-101
-54,-101
-55,-98
-57,-96
-60,-89
-69,-91
-72,-101
-77,-107
-80,-108
-85,-103
-88,-102
-92,-104
-92,-104
-95,-99
-95,-99
-97,-92
-99,-99
-98,-105
-98,-107
-96,-106
-97,-104
-97,-100
-100,-93
-95,-96
-98,-101
-99,-107
-101,-100
-95,-103
-97,-101
-96,-100
-95,-98
-90,-94
-79,-93
-70,-101
-61,-106
-52,-102
-41,-98
-36,-98
-37,-93
-45,-98
-50,-118
-61,-142
-98,-166
-144,-186
-178,-197
-212,-197
-234,-192
-245,-194
-238,-191
-227,-178
-202,-175
-162,-179
-129,-171
-106,-165
-97,-158
-90,-133
-93,-116
-92,-97
-94,-83
-89,-80
-86,-76
-85,-76
-85,-75
-80,-73
-86,-75
-83,-84
-83,-82
-86,-78
-82,-78
-79,-78
-80,-74
-82,-71
-81,-68
-82,-70
-80,-75
-78,-78
-80,-75
-75,-77
-74,-70
-72,-68
-75,-67
-71,-69
-75,-68
-68,-67
-71,-67
-68,-63
-67,-65
-62,-57
-60,-55
-61,-55
-57,-55
-61,-54
-56,-56
-58,-52
-53,-53
-51,-53
-48,-52
-47,-48
-45,-48
-45,-45
-45,-44
-46,-49
-49,-58
-48,-56
-50,-55
-51,-55
-55,-56
-57,-56
-62,-59
-62,-67
-65,-67
-69,-70
-67,-64
-68,-67
-68,-72
-69,-75
-69,-83
-69,-78
-69,-79
-71,-75
-73,-72
-70,-70
-71,-73
-71,-76
-71,-78
-70,-77
-70,-82
-70,-79
-66,-79
-68,-74
-67,-71
-66,-66
-67,-74
-70,-81
-68,-79
-69,-76
-68,-70
-69,-71
-73,-66
-71,-73
-68,-79
-72,-74
-71,-71
-69,-78
-68,-76
-67,-75
-65,-71
-66,-73
-67,-69
-63,-73
-68,-77
-66,-76
-57,-76
-59,-74
-52,-69
-47,-69
-43,-71
-36,-75
-35,-69
-32,-67
-32,-65
-33,-65
-37,-66
-39,-68
-42,-71
-49,-75
-55,-71
-60,-75
-62,-75
-70,-74
-67,-74
-73,-70
-72,-76
-73,-78
-71,-79
-69,-77
-75,-80
-72,-80
-76,-82
-76,-77
-79,-77
-77,-80
-78,-86
-73,-80
-73,-78
-75,-79
-76,-77
-75,-80
-72,-84
-72,-80
-64,-76
-59,-79
-46,-85
-35,-81
-27,-81
-20,-84
-20,-78
-27,-82
-30,-91
-41,-105
-56,-126
-103,-147
-148,-172
-180,-185
-209,-184
-226,-179
-231,-169
-227,-172
-205,-173
-174,-164
-135,-158
-105,-152
-84,-149
-86,-135
-84,-111
-82,-86
-83,-70
-84,-60
-84,-61
-82,-61
-82,-63
-85,-67
-83,-71
-81,-70
-78,-68
-76,-68
-77,-60
-78,-59
-78,-63
-77,-68
-78,-70
-74,-64
-75,-55
-75,-56
-74,-63
-73,-69
-73,-65
-75,-67
-72,-58
-66,-55
-65,-54
-65,-61
-65,-62
-60,-62
-56,-55
-55,-51
-53,-42
-48,-48
-50,-57
-56,-59
-52,-55
-52,-53
-53,-45
-53,-43
-52,-38
-49,-39
-42,-38
-40,-38
-43,-37
-42,-40
-42,-45
-45,-48
-48,-52
-40,-46
-44,-48
-49,-52
-54,-58
-58,-64
-58,-66
-50,-73
-57,-69
-64,-66
-75,-72
-78,-74
-75,-70
-71,-71
-69,-72
-68,-71
-69,-69
-68,-73
-68,-73
-68,-75
-67,-70
-63,-66
-69,-68
-66,-67
-66,-75
-68,-69
-75,-70
-76,-68
-75,-69
-70,-70
-75,-77
-78,-69
-78,-60
-75,-62
-70,-69
-70,-72
-73,-74
-71,-72
-72,-66
-67,-64
-71,-68
-71,-72
-71,-71
-73,-66
-68,-68
-70,-71
-65,-69
-64,-67
-61,-71
-55,-69
-57,-65
-61,-57
-55,-59
-51,-61
-38,-60
-36,-63
-32,-62
-33,-56
-32,-60
-35,-67
-41,-66
-48,-67
-54,-64
-52,-61
-60,-68
-64,-70
-68,-70
-71,-70
-73,-68
-72,-67
-77,-70
-74,-70
-80,-64
-76,-68
-77,-68
-80,-65
-79,-63
-79,-61
-77,-59
-76,-64
-75,-64
-76,-71
-81,-72
-81,-68
-74,-64
-75,-63
-73,-65
-73,-68
-63,-67
-54,-66
-41,-71
-28,-67
-18,-66
-13,-61
-13,-61
-16,-66
-18,-75
-32,-96
-71,-124
-123,-148
-167,-158
-199,-166
-229,-164
-234,-157
-231,-158
-213,-153
-182,-148
-141,-137
-106,-136
-87,-134
-78,-124
-76,-108
-74,-84
-73,-58
-74,-52
-72,-46
-74,-46
-72,-47
-66,-46
-69,-44
-67,-46
-67,-45
-62,-39
-55,-38
-56,-43
-63,-48
-60,-49
-60,-42
-61,-42
-65,-40
-66,-41
-60,-42
-56,-43
-55,-40
-57,-40
-52,-36
-53,-31
-51,-31
-45,-34
-48,-32
-50,-33
-53,-31
-50,-30
-46,-24
-46,-24
-43,-25
-43,-24
-44,-15
-41,-16
-34,-17
-30,-19
-30,-17
-34,-21
-32,-15
-27,-11
-28,-16
-30,-15
-39,-9
-45,-15
-46,-16
-44,-17
-49,-26
-51,-24
-56,-32
-56,-34
-59,-37
-59,-40
-62,-44
-65,-46
-64,-42
-64,-42
-66,-46
-67,-51
-68,-52
-68,-52
-67,-49
-69,-45
-68,-44
-74,-45
-70,-48
-73,-46
-75,-47
-67,-41
-70,-42
-74,-46
-76,-52
-73,-47
-73,-48
-77,-51
-78,-49
-82,-54
-82,-49
-80,-51
-79,-49
-78,-47
-80,-47
-82,-44
-81,-46
-82,-46
-79,-41
-80,-43
-79,-44
-79,-49
-77,-52
-77,-54
-72,-50
-76,-48
-77,-51
-77,-48
-71,-48
-74,-46
-78,-46
-68,-49
-56,-56
-53,-52
-45,-46
-42,-43
-43,-42
-47,-39
-55,-41
-58,-51
-61,-54
-67,-56
-72,-55
-75,-55
-79,-56
-87,-56
-89,-48
-94,-47
-95,-46
-92,-57
-94,-56
-95,-55
-98,-51
-100,-49
-99,-56
-102,-52
-100,-51
-99,-53
-97,-55
-95,-60
-98,-57
-105,-57
-103,-55
-101,-54
-99,-52
-97,-43
-92,-46
-88,-52
-76,-58
-64,-63
-56,-58
-53,-55
-47,-47
-46,-53
-48,-61
-55,-74
-71,-98
-110,-124
-162,-148
-199,-161
-232,-161
-248,-165
-258,-172
-256,-172
-244,-161
-213,-152
-179,-145
-144,-140
-123,-134
-107,-122
-107,-98
-102,-64
-101,-47
-103,-36
-102,-30
-101,-27
-104,-29
-101,-31
-99,-32
-93,-35
-94,-33
-94,-38
-93,-27
-90,-28
-91,-24
-92,-27
-94,-27
-92,-28
-89,-32
-85,-31
-84,-28
-83,-27
-82,-25
-87,-24
-82,-25
-76,-23
-77,-12
-79,-14
-79,-14
-75,-28
-77,-28
-72,-21
-67,-12
-68,-10
-68,-9
-63,-12
-66,-12
-60,-10
-59,-7
-54,-1
-55,0
-52,5
-51,7
-52,-1
-54,-4
-57,-4
-56,1
-56,4
-56,0
-59,0
-64,-6
-66,-14
-73,-15
-81,-20
-86,-21
-87,-26
-84,-31
-86,-30
-87,-31
-85,-31
-85,-32
-88,-36
-89,-37
-91,-35
-94,-32
-90,-29
-94,-39
-84,-42
-87,-36
-85,-36
-86,-37
-92,-33
-90,-31
-92,-34
-90,-33
-92,-35
-86,-31
-86,-28
-85,-28
-90,-27
-92,-22
-94,-24
-93,-34
-94,-32
-95,-34
-95,-29
-88,-27
-83,-27
-87,-19
-90,-23
-92,-26
-91,-26
-84,-28
-78,-21
-76,-25
-79,-21
-76,-19
-71,-18
-65,-22
-56,-18
-52,-19
-48,-13
-51,-11
-50,-10
-48,-15
-47,-15
-60,-20
-64,-20
-71,-15
-76,-15
-77,-16
-85,-12
-92,-17
-94,-20
-96,-14
-96,-15
-98,-20
-100,-20
-97,-21
-102,-18
-100,-18
-96,-20
-103,-23
-106,-21
-110,-20
-107,-22
-110,-16
-101,-18
-103,-17
-105,-15
-101,-15
-104,-15
-101,-18
-96,-22
-84,-25
-68,-15
-61,-20
-48,-21
-48,-18
-47,-17
-48,-27
-42,-38
-42,-49
-66,-72
-116,-100
-176,-122
-215,-134
-243,-136
-271,-141
-279,-145
-278,-140
-264,-137
-230,-126
-188,-123
-145,-115
-123,-106
-115,-87
-110,-65
-111,-27
-109,-7
-111,-2
-114,-1
-112,-4
-113,-8
-111,-1
-109,-2
-111,-1
-109,-2
-103,3
-106,4
-112,3
-113,4
-107,1
-106,-3
-104,-6
-102,-2
-106,-2
-107,-2
-106,2
-103,6
-103,5
-104,6
-102,6
-102,8
-100,5
-100,7
-97,9
-99,12
-97,13
-90,11
-90,17
-89,17
-94,17
-93,14
-92,17
-88,19
-85,22
-85,25
-86,18
-82,12
-82,10
-83,9
-82,9
-84,10
-87,7
-91,9
-93,7
-102,4
-106,-2
-108,-11
-111,-8
-118,-11
-122,-24
-125,-26
-127,-29
-124,-23
-124,-18
-128,-28
-127,-31
-128,-30
-127,-30
-121,-25
-122,-25
-128,-22
-128,-24
-131,-28
-128,-27
-127,-23
-128,-24
-128,-28
-129,-33
-132,-26
-130,-26
-129,-24
-135,-27
-138,-26
-137,-27
-133,-26
-139,-25
-134,-24
-134,-21
-130,-24
-128,-32
-130,-30
-132,-31
-134,-28
-133,-29
-139,-29
-143,-27
-140,-25
-136,-23
-132,-26
-126,-23
-121,-21
-112,-22
-109,-22
-102,-17
-101,-13
-100,-13
-105,-17
-104,-18
-104,-21
-114,-30
-126,-33
-134,-30
-140,-26
-144,-25
-146,-26
-151,-28
-153,-30
-151,-25
-154,-28
-158,-28
-157,-26
-155,-25
-154,-22
-158,-16
-159,-16
-158,-22
-159,-41
-156,-40
-157,-38
-158,-34
-157,-29
-155,-29
-155,-28
-152,-28
-147,-28
-137,-31
-122,-32
-112,-30
-101,-26
-90,-21
-89,-26
-89,-38
-85,-44
-85,-57
-107,-78
-156,-95
-220,-125
-261,-145
-291,-149
-312,-146
-317,-149
-315,-151
-301,-143
-272,-125
-235,-115
-200,-112
-176,-106
-164,-93
-159,-72
-160,-48
-160,-25
-160,-14
-158,-12
-158,-11
-156,-15
-157,-14
-153,-15
-155,-15
-152,-9
-152,-8
-151,-11
-152,-7
-145,-3
-148,-11
-146,-17
-145,-20
-144,-13
-145,-10
-143,-7
-142,-4
-143,-5
-139,-7
-138,-5
-140,-6
-137,-6
-134,-10
-136,-7
-137,1
-135,0
-129,5
-132,6
-131,9
-126,5
-123,5
-121,1
-123,-2
-119,5
-117,6
-118,10
-118,11
-116,9
-109,9
-111,13
-114,11
-114,9
-119,6
-121,10
-122,12
-128,1
-130,-7
-133,-6
-143,-12
-143,-12
-142,-17
-146,-19
-149,-19
-149,-19
-152,-18
-152,-19
-150,-24
-153,-19
-154,-18
-152,-15
-150,-22
-152,-30
-155,-27
-154,-26
-148,-24
-148,-19
-152,-19
-153,-21
-156,-20
-152,-22
-153,-26
-153,-23
-155,-20
-154,-20
-157,-18
-156,-22
-153,-25
-154,-25
-152,-21
-153,-20
-151,-22
-150,-20
-152,-23
-151,-18
-151,-16
-152,-22
-147,-29
-145,-28
-146,-26
-144,-24
-139,-25
-139,-19
-130,-14
-122,-18
-111,-18
-113,-23
-113,-24
-112,-24
-109,-24
-107,-22
-112,-15
-124,-19
-128,-18
-135,-27
-139,-27
-141,-31
-147,-32
-152,-27
-153,-29
-156,-26
-156,-22
-158,-23
-161,-27
-161,-31
-159,-29
-158,-28
-159,-25
-159,-26
-157,-27
-158,-30
-160,-32
-157,-31
-158,-31
-164,-32
-160,-32
-157,-30
-159,-29
-153,-30
-148,-32
-128,-30
-119,-32
-112,-28
-101,-27
-101,-21
-105,-21
-107,-29
-103,-47
-121,-75
-167,-110
-219,-128
-257,-137
-291,-139
-310,-132
-323,-137
-318,-135
-305,-128
-271,-123
-232,-116
-189,-113
-170,-108
-164,-89
-161,-69
-159,-39
-162,-22
-160,-17
-158,-20
-157,-21
-156,-21
-161,-20
-156,-23
-158,-20
-160,-15
-154,-16
-158,-16
-155,-18
-156,-20
-150,-15
-152,-21
-152,-15
-151,-16
-150,-13
-146,-12
-148,-11
-143,-9
-146,-8
-147,-11
-147,-10
-145,-8
-141,-9
-137,-7
-138,-6
-138,-4
-136,-3
-134,-5
-132,-4
-129,-4
-130,0
-129,0
-132,3
-126,3
-124,6
-121,8
-121,10
-122,7
-117,8
-120,7
-121,3
-124,0
-125,4
-127,1
-121,6
-126,4
-132,3
-136,-4
-144,-13
-144,-18
-146,-28
-145,-29
-145,-23
-146,-21
-142,-25
-150,-24
-156,-20
-156,-26
-153,-31
-151,-30
-154,-25
-152,-34
-150,-24
-150,-26
-148,-25
-147,-16
-149,-18
-152,-25
-147,-26
-151,-25
-150,-26
-149,-26
-149,-20
-145,-14
-147,-15
-147,-18
-144,-23
-145,-29
-144,-26
-151,-28
-150,-25
-148,-28
-146,-28
-151,-20
-150,-24
-147,-22
-148,-20
-144,-22
-141,-24
-136,-27
-138,-20
-138,-22
-134,-18
-128,-19
-118,-16
-106,-19
-104,-18
-106,-14
-100,-17
-100,-14
-107,-15
-110,-14
-118,-17
-121,-19
-123,-21
-130,-24
-134,-22
-143,-27
-146,-25
-143,-22
-144,-23
-148,-21
-144,-18
-143,-18
-149,-24
-151,-23
-147,-28
-145,-24
-146,-25
-144,-24
-143,-20
-148,-22
-142,-21
-147,-22
-148,-23
-147,-25
-143,-22
-138,-23
-136,-24
-123,-25
-111,-22
-98,-24
-90,-20
-83,-18
-78,-18
-80,-22
-83,-37
-87,-53
-112,-70
-166,-93
-213,-117
-253,-125
-285,-126
-308,-124
-310,-126
-302,-123
-277,-121
-237,-115
-194,-106
-165,-104
-148,-96
-145,-72
-149,-50
-148,-25
-149,-12
-144,-14
-141,-9
-138,-6
-136,-3
-139,-14
-139,-17
-142,-10
-142,-9
-140,-13
-142,-12
-140,-10
-137,-6
-134,-8
-134,-8
-133,-8
-128,-10
-130,-7
-128,-1
-127,-8
-127,-8
-130,-3
-127,-6
-124,0
-122,-1
-124,-3
-123,-1
-122,0
-121,1
-119,5
-116,3
-113,4
-112,2
-111,0
-110,5
-109,7
-109,6
-108,10
-109,10
-109,7
-104,7
-101,8
-102,6
-102,11
-101,6
-102,1
-109,7
-114,5
-117,1
-119,-2
-122,-6
-122,-14
-126,-12
-128,-19
-127,-19
-132,-23
-129,-24
-133,-25
-134,-22
-135,-25
-133,-28
-130,-25
-136,-27
-135,-28
-134,-26
-136,-28
-133,-21
-136,-23
-135,-21
-135,-23
-135,-26
-136,-26
-134,-23
-134,-23
-138,-25
-137,-24
-139,-27
-137,-27
-138,-25
-136,-25
-132,-31
-132,-28
-134,-27
-133,-28
-139,-27
-137,-28
-139,-27
-139,-23
-137,-28
-129,-27
-132,-28
-128,-29
-126,-26
-127,-24
-122,-26
-121,-28
-113,-25
-109,-21
-102,-23
-96,-24
-98,-27
-95,-31
-96,-24
-98,-18
-108,-24
-108,-22
-117,-27
-122,-24
-126,-25
-129,-27
-135,-33
-138,-34
-139,-29
-142,-22
-142,-24
-144,-26
-146,-25
-151,-25
-146,-32
-142,-31
-144,-32
-147,-28
-146,-30
-146,-33
-149,-29
-149,-28
-146,-28
-148,-32
-146,-32
-146,-31
-141,-31
-134,-31
-121,-29
-112,-31
-103,-29
-92,-31
-83,-27
-79,-32
-79,-34
-80,-43
-86,-58
-101,-74
-148,-98
-200,-115
-242,-130
-279,-131
-306,-131
-312,-136
-307,-138
-286,-133
-246,-125
-204,-121
-167,-114
-150,-105
-147,-86
-150,-66
-151,-34
-147,-19
-147,-13
-148,-17
-153,-13
-149,-8
-154,-12
-154,-16
-153,-13
-154,-15
-148,-12
-151,-16
-150,-11
-146,-13
-146,-10
-143,-10
-147,-9
-144,-14
-143,-9
-140,-11
-140,-8
-140,-9
-140,-12
-137,-9
-136,-5
-139,-3
-137,-3
-137,-3
-136,-2
-133,0
-135,0
-133,-3
-131,0
-125,0
-126,2
-127,8
-123,11
-125,8
-122,13
-123,14
-116,13
-113,9
-111,11
-112,14
-115,14
-115,16
-120,10
-120,6
-122,0
-128,3
-132,0
-134,-7
-137,-11
-140,-11
-142,-14
-144,-16
-148,-14
-149,-16
-148,-18
-147,-19
-148,-23
-149,-19
-152,-23
-155,-15
-154,-20
-153,-19
-152,-16
-153,-18
-154,-20
-152,-17
-152,-21
-152,-21
-152,-19
-150,-18
-154,-19
-151,-19
-149,-15
-153,-17
-153,-18
-151,-19
-153,-19
-151,-22
-150,-18
-155,-17
-159,-15
-159,-19
-158,-16
-160,-17
-158,-22
-154,-18
-152,-24
-151,-19
-149,-19
-149,-19
-150,-11
-143,-22
-139,-16
-125,-16
-114,-16
-109,-17
-109,-18
-106,-15
-105,-18
-110,-21
-115,-17
-122,-21
-126,-22
-131,-24
-135,-26
-138,-22
-143,-24
-144,-27
-144,-27
-148,-24
-148,-20
-152,-24
-148,-23
-148,-27
-147,-28
-137,-26
-139,-23
-139,-28
-138,-28
-135,-30
-137,-26
-134,-27
-133,-28
-131,-29
-130,-25
-129,-28
-130,-29
-123,-32
-113,-31
-98,-29
-87,-32
-77,-24
-71,-30
-63,-32
-64,-35
-64,-43
-67,-61
-89,-82
-139,-108
-193,-132
-231,-140
-263,-142
-284,-146
-291,-146
-284,-146
-267,-145
-235,-140
-186,-134
-154,-130
-134,-118
-126,-99
-122,-66
-122,-42
-122,-19
-120,-13
-125,-14
-119,-18
-120,-16
-122,-14
-121,-14
-116,-14
-115,-13
-116,-14
-113,-15
-110,-16
-111,-15
-106,-19
-107,-14
-110,-15
-110,-19
-106,-15
-112,-16
-105,-14
-105,-11
-101,-8
-102,-9
-102,-8
-99,-6
-99,-13
-98,-8
-95,-8
-94,-2
-89,1
-85,-1
-86,-5
-84,-3
-85,-7
-83,-6
-79,-5
-80,-4
-82,-1
-79,0
-80,1
-73,-1
-72,0
-75,0
-79,4
-81,3
-83,0
-83,-5
-86,-10
-86,-11
-92,-14
-94,-20
-102,-28
-108,-34
-109,-32
-110,-40
-113,-40
-116,-42
-113,-42
-113,-49
-113,-50
-109,-51
-107,-51
-104,-49
-111,-51
-110,-50
-109,-48
-112,-49
-109,-52
-107,-52
-107,-52
-110,-51
-108,-55
-107,-52
-106,-48
-106,-48
-108,-49
-104,-48
-103,-50
-102,-48
-102,-52
-97,-52
-97,-48
-102,-55
-98,-48
-97,-50
-100,-50
-100,-56
-97,-55
-100,-57
-100,-50
-98,-52
-100,-55
-102,-56
-95,-48
-98,-51
-99,-54
-93,-55
-87,-56
-79,-57
-73,-54
-57,-50
-58,-48
-52,-49
-54,-47
-53,-44
-57,-46
-62,-52
-64,-52
-68,-52
-71,-57
-83,-59
-86,-56
-91,-59
-89,-58
-95,-60
-98,-52
-93,-55
-91,-57
-96,-60
-97,-59
-94,-53
-94,-57
-98,-54
-102,-60
-104,-57
-102,-57
-100,-56
-102,-59
-99,-59
-103,-61
-102,-57
-101,-59
-97,-58
-91,-62
-83,-61
-71,-61
-58,-64
-47,-62
-42,-61
-40,-64
-43,-70
-40,-78
-40,-97
-60,-126
-112,-152
-167,-176
-205,-184
-235,-185
-256,-185
-262,-186
-261,-188
-247,-181
-220,-173
-178,-165
-141,-153
-115,-146
-105,-128
-98,-98
-102,-67
-104,-48
-101,-40
-101,-39
-101,-37
-96,-41
-92,-50
-95,-51
-94,-47
-89,-47
-91,-40
-92,-40
-92,-41
-92,-40
-93,-40
-94,-43
-90,-44
-86,-40
-87,-37
-82,-41
-82,-36
-80,-34
-80,-37
-81,-35
-80,-30
-78,-32
-78,-40
-78,-42
-72,-36
-72,-37
-68,-32
-67,-32
-66,-36
-66,-30
-66,-26
-63,-28
-62,-24
-57,-24
-55,-24
-53,-25
-49,-20
-49,-13
-49,-15
-50,-19
-49,-18
-51,-23
-53,-24
-56,-31
-57,-35
-61,-37
-67,-42
-73,-40
-78,-43
-81,-52
-81,-54
-82,-56
-82,-61
-85,-65
-85,-61
-82,-64
-87,-62
-87,-63
-89,-67
-93,-66
-84,-64
-86,-67
-84,-66
-82,-66
-81,-62
-83,-66
-80,-69
-81,-64
-81,-68
-80,-71
-77,-71
-76,-73
-77,-71
-72,-69
-70,-72
-69,-67
-72,-70
-71,-72
-72,-70
-72,-68
-70,-71
-70,-70
-69,-71
-71,-72
-64,-75
-65,-71
-64,-69
-58,-73
-64,-70
-62,-71
-61,-70
-51,-69
-45,-71
-34,-72
-28,-68
-27,-70
-26,-67
-27,-68
-31,-68
-38,-69
-44,-73
-45,-77
-50,-75
-55,-78
-58,-81
-59,-79
-64,-77
-67,-79
-72,-77
-75,-68
-80,-82
-79,-80
-80,-81
-78,-81
-77,-84
-84,-81
-83,-83
-83,-85
-83,-83
-82,-88
-80,-85
-79,-84
-78,-81
-78,-86
-75,-86
-76,-84
-66,-80
-54,-83
-46,-86
-35,-88
-28,-85
-23,-90
-26,-86
-25,-91
-25,-105
-32,-127
-73,-150
-130,-174
-169,-191
-202,-202
-232,-195
-243,-199
-248,-204
-241,-200
-218,-195
-179,-185
-142,-178
-110,-172
-89,-165
-85,-141
-90,-107
-87,-87
-82,-71
-76,-70
-75,-72
-78,-72
-77,-72
-76,-70
-74,-70
-73,-66
-72,-73
-75,-72
-71,-75
-68,-68
-70,-64
-63,-66
-64,-64
-63,-69
-61,-69
-59,-70
-57,-69
-56,-71
-53,-72
-53,-67
-48,-68
-50,-65
-46,-60
-45,-60
-42,-66
-40,-67
-36,-64
-38,-60
-34,-58
-38,-60
-32,-52
-31,-52
-31,-51
-31,-49
-24,-49
-17,-47
-18,-46
-14,-40
-15,-44
-19,-45
-13,-44
-10,-50
-16,-50
-15,-48
-20,-53
-26,-59
-24,-60
-31,-61
-29,-70
-36,-68
-41,-70
-45,-76
-47,-76
-43,-82
-40,-78
-39,-80
-40,-77
-40,-80
-45,-82
-44,-87
-44,-86
-45,-79
-43,-80
-44,-80
-41,-84
-45,-79
-41,-84
-39,-84
-42,-80
-43,-77
-39,-80
-37,-78
-46,-78
-43,-81
-43,-83
-37,-78
-35,-80
-39,-77
-39,-78
-41,-71
-39,-75
-39,-77
-42,-78
-39,-79
-39,-74
-36,-72
-36,-75
-31,-78
-29,-77
-25,-78
-25,-77
-21,-71
-22,-75
-13,-73
-6,-72
1,-70
8,-70
11,-68
11,-67
8,-69
7,-71
0,-73
-1,-70
-4,-74
-8,-77
-15,-80
-19,-77
-23,-77
-30,-79
-31,-81
-33,-76
-32,-73
-34,-77
-32,-77
-33,-79
-29,-80
-30,-80
-32,-84
-31,-78
-38,-78
-37,-79
-36,-76
-36,-75
-34,-79
-30,-83
-29,-79
-33,-79
-31,-79
-21,-80
-11,-80
-2,-80
8,-79
18,-80
28,-78
28,-81
26,-87
20,-98
14,-119
-21,-144
-68,-170
-113,-187
-147,-190
-176,-188
-193,-190
-193,-189
-177,-188
-152,-184
-111,-176
-76,-171
-44,-164
-37,-151
-34,-122
-34,-93
-31,-75
-29,-66
-28,-64
-25,-68
-28,-65
-30,-61
-23,-61
-23,-64
-23,-59
-22,-61
-23,-58
-22,-60
-24,-62
-22,-62
-23,-61
-22,-60
-19,-61
-18,-61
-17,-58
-16,-59
-13,-60
-13,-60
-9,-56
-11,-57
-15,-53
-9,-54
-9,-55
-4,-50
-3,-52
-3,-53
-1,-47
0,-47
-1,-48
0,-46
2,-46
1,-43
6,-41
5,-43
6,-44
10,-43
7,-38
13,-35
14,-40
14,-39
12,-36
8,-37
7,-46
6,-46
3,-54
-2,-58
-4,-59
-10,-62
-15,-62
-15,-66
-17,-71
-21,-69
-21,-76
-15,-78
-22,-78
-26,-79
-22,-78
-19,-75
-20,-78
-22,-77
-17,-72
-19,-76
-20,-78
-20,-76
-21,-75
-16,-78
-17,-80
-19,-78
-19,-74
-21,-73
-19,-79
-21,-75
-21,-74
-21,-76
-21,-76
-22,-79
-21,-78
-21,-71
-20,-73
-23,-73
-18,-71
-22,-72
-26,-76
-21,-81
-18,-73
-15,-73
-18,-76
-13,-75
-12,-74
-10,-74
-10,-75
-8,-75
-6,-76
-2,-77
8,-71
16,-72
20,-69
24,-69
23,-69
20,-69
19,-68
12,-71
10,-75
7,-76
0,-71
-2,-73
-6,-74
-12,-75
-15,-75
-20,-73
-21,-74
-20,-73
-20,-77
-23,-73
-21,-75
-20,-76
-21,-76
-23,-77
-25,-78
-24,-76
-23,-80
-23,-78
-22,-79
-22,-76
-20,-76
-18,-78
-22,-74
-19,-71
-13,-77
0,-72
8,-78
23,-80
34,-69
40,-71
43,-75
41,-82
40,-93
29,-108
-5,-139
-57,-166
-100,-180
-139,-185
-169,-182
-184,-183
-184,-186
-174,-183
-149,-183
-106,-176
-67,-164
-39,-158
-24,-148
-20,-122
-20,-92
-18,-68
-17,-56
-17,-52
-16,-54
-16,-57
-15,-57
-16,-55
-14,-52
-13,-55
-13,-52
-9,-51
-9,-53
-8,-55
-2,-52
-6,-49
-3,-54
-4,-51
-1,-48
1,-52
0,-48
0,-47
0,-45
2,-44
5,-42
7,-40
2,-42
9,-40
8,-39
11,-37
14,-37
18,-35
16,-31
20,-28
22,-23
19,-28
20,-28
29,-29
28,-27
29,-24
35,-22
35,-23
34,-22
33,-18
36,-22
36,-23
32,-23
32,-31
30,-29
24,-31
22,-37
18,-35
10,-43
13,-48
9,-54
8,-48
5,-52
7,-56
7,-55
6,-54
3,-58
6,-60
5,-58
3,-59
1,-62
1,-58
1,-61
1,-59
3,-62
0,-61
4,-58
2,-62
0,-62
-2,-58
0,-61
1,-58
0,-60
-1,-61
2,-56
4,-62
2,-60
3,-58
-2,-57
2,-60
0,-59
0,-60
2,-58
-2,-60
4,-58
2,-58
5,-54
3,-56
1,-58
8,-61
4,-60
8,-59
10,-59
14,-55
18,-62
19,-61
24,-56
33,-56
37,-56
42,-57
44,-56
44,-56
45,-56
44,-55
39,-55
35,-61
33,-62
26,-58
18,-61
13,-62
8,-59
8,-65
3,-63
0,-60
0,-63
-4,-63
4,-60
-3,-61
-2,-65
-5,-62
-2,-61
-2,-63
0,-63
-3,-63
0,-64
-2,-64
2,-60
-2,-59
-3,-60
0,-62
-1,-67
4,-63
13,-64
28,-63
36,-60
42,-63
48,-66
51,-65
52,-72
52,-83
49,-95
33,-126
-9,-148
-60,-175
-100,-184
-132,-184
-148,-184
-160,-189
-160,-188
-142,-189
-110,-183
-69,-174
-31,-168
-11,-156
-3,-134
-3,-102
-5,-76
-3,-59
-1,-53
-2,-53
-2,-50
1,-53
4,-49
3,-51
3,-47
4,-48
3,-52
2,-50
2,-45
0,-50
7,-51
5,-50
6,-48
6,-51
7,-44
7,-46
10,-44
12,-44
9,-45
9,-45
13,-44
13,-40
18,-42
19,-40
20,-38
20,-36
21,-36
21,-34
24,-31
25,-34
29,-29
31,-27
33,-25
35,-25
37,-20
37,-23
40,-23
40,-22
38,-23
41,-20
39,-23
40,-25
39,-23
37,-27
35,-27
32,-33
25,-38
23,-43
15,-45
15,-50
14,-53
11,-53
9,-58
11,-56
8,-58
4,-57
5,-57
1,-56
3,-58
5,-56
6,-59
6,-57
9,-57
8,-62
8,-59
4,-58
3,-57
3,-58
2,-56
5,-55
2,-59
7,-62
4,-57
0,-59
0,-56
0,-59
0,-57
0,-56
0,-56
5,-60
3,-60
4,-57
2,-60
1,-60
3,-55
3,-57
2,-52
4,-52
9,-58
12,-56
14,-61
12,-61
13,-53
22,-51
28,-53
37,-50
41,-48
41,-52
43,-50
39,-51
41,-50
35,-51
31,-51
24,-50
18,-52
15,-50
7,-55
1,-55
0,-64
-4,-60
-7,-50
-8,-52
-4,-56
-4,-56
-10,-56
-10,-57
-9,-56
-7,-55
-8,-58
-8,-56
-7,-57
-12,-56
-10,-59
-8,-54
-10,-55
-14,-56
-8,-57
-7,-54
-3,-54
12,-57
19,-55
32,-61
45,-59
47,-56
49,-60
49,-75
51,-84
48,-101
26,-124
-32,-147
-90,-163
-122,-171
-159,-174
-175,-172
-180,-176
-177,-171
-158,-167
-122,-162
-77,-156
-47,-149
-26,-134
-21,-114
-22,-87
-23,-61
-24,-41
-25,-36
-22,-40
-18,-45
-18,-40
-22,-42
-21,-40
-23,-38
-19,-36
-17,-38
-15,-37
-19,-32
-20,-36
-18,-35
-18,-36
-14,-36
-15,-35
-12,-35
-17,-31
-12,-32
-12,-29
-12,-28
-12,-32
-11,-30
-9,-28
-10,-25
-6,-25
-9,-23
-10,-21
-7,-19
-8,-21
-6,-18
-3,-19
-5,-19
1,-16
3,-16
3,-14
6,-15
4,-7
4,-9
6,-15
7,-13
11,-14
8,-12
5,-20
5,-17
-2,-20
-6,-25
-10,-25
-14,-28
-20,-32
-25,-35
-30,-36
-33,-42
-36,-47
-34,-45
-39,-47
-38,-51
-37,-50
-39,-52
-42,-52
-42,-51
-44,-54
-47,-55
-40,-52
-40,-48
-41,-49
-42,-48
-40,-50
-47,-51
-44,-49
-45,-51
-43,-49
-45,-56
-45,-51
-47,-52
-48,-53
-51,-50
-51,-53
-52,-51
-51,-50
-55,-55
-50,-55
-56,-56
-55,-52
-53,-55
-51,-51
-52,-51
-50,-52
-52,-55
-49,-55
-46,-58
-50,-51
-44,-57
-42,-56
-32,-53
-21,-54
-16,-52
-14,-54
-13,-54
-12,-52
-16,-50
-21,-51
-24,-54
-34,-53
-37,-55
-44,-56
-48,-56
-55,-60
-58,-59
-66,-60
-67,-63
-65,-58
-63,-60
-66,-59
-68,-58
-71,-58
-68,-59
-71,-60
-69,-61
-68,-61
-69,-65
-66,-62
-64,-59
-69,-61
-69,-59
-65,-58
-67,-58
-64,-58
-55,-63
-52,-60
-40,-65
-23,-62
-15,-64
-8,-61
-4,-72
-5,-71
-5,-87
-9,-102
-29,-122
-79,-148
-140,-162
-176,-176
-206,-178
-226,-185
-238,-183
-232,-178
-222,-170
-191,-165
-148,-152
-108,-155
-83,-143
-75,-125
-74,-100
-75,-67
-76,-56
-72,-51
-74,-47
-74,-52
-75,-51
-70,-51
-73,-49
-68,-55
-69,-50
-68,-51
-68,-51
-71,-46
-67,-47
-64,-47
-63,-44
-64,-49
-63,-43
-63,-49
-61,-51
-61,-46
-60,-47
-58,-41
-56,-42
-57,-42
-55,-40
-54,-41
-50,-38
-55,-40
-52,-40
-48,-37
-51,-34
-48,-35
-43,-32
-49,-30
-40,-33
-43,-30
-37,-27
-38,-28
-38,-26
-35,-30
-34,-28
-36,-26
-35,-25
-34,-26
-41,-28
-36,-29
-39,-38
-43,-35
-45,-38
-53,-41
-58,-48
-61,-52
-62,-56
-66,-57
-63,-60
-64,-63
-66,-64
-64,-63
-66,-63
-68,-62
-64,-60
-67,-60
-71,-61
-74,-65
-70,-61
-70,-64
-67,-64
-68,-61
-73,-59
-65,-59
-69,-64
-71,-62
-72,-63
-68,-64
-68,-61
-66,-64
-69,-62
-68,-59
-71,-61
-71,-62
-70,-57
-70,-60
-72,-61
-66,-61
-69,-60
-66,-60
-67,-57
-69,-56
-65,-58
-62,-59
-62,-61
-63,-60
-61,-60
-58,-58
-53,-55
-46,-59
-36,-61
-29,-61
-31,-55
-31,-60
-28,-58
-29,-57
-32,-56
-43,-58
-47,-57
-56,-61
-59,-61
-60,-63
-67,-62
-72,-63
-79,-60
-75,-63
-79,-60
-73,-64
-72,-63
-80,-64
-79,-62
-75,-66
-77,-62
-78,-61
-81,-66
-80,-64
-78,-62
-76,-66
-76,-67
-79,-64
-79,-66
-78,-67
-76,-64
-70,-67
-63,-69
-50,-60
-39,-64
-32,-67
-18,-69
-14,-64
-11,-75
-14,-82
-21,-99
-43,-124
-97,-150
-145,-167
-178,-176
-214,-178
-234,-182
-242,-183
-239,-178
-218,-171
-188,-167
-147,-159
-109,-157
-87,-144
-78,-124
-76,-96
-78,-71
-76,-59
-80,-55
-79,-55
-78,-51
-77,-55
-76,-54
-75,-55
-72,-51
-73,-52
-78,-52
-70,-53
-73,-54
-73,-52
-75,-53
-73,-53
-69,-53
-73,-52
-66,-53
-67,-50
-66,-51
-64,-48
-64,-45
-65,-42
-63,-46
-65,-44
-61,-45
-60,-45
-57,-43
-54,-35
-56,-38
-55,-36
-53,-32
-52,-32
-52,-31
-46,-30
-43,-30
-46,-32
-43,-32
-44,-23
-43,-29
-42,-29
-39,-29
-45,-33
-40,-31
-39,-36
-44,-35
-44,-37
-51,-43
-53,-46
-60,-48
-63,-53
-66,-57
-67,-60
-70,-64
-72,-67
-72,-67
-70,-68
-68,-66
-72,-66
-75,-68
-75,-69
-76,-70
-77,-73
-78,-69
-76,-71
-72,-66
-77,-68
-74,-69
-73,-69
-73,-70
-73,-68
-74,-66
-77,-69
-78,-67
-74,-69
-73,-66
-72,-70
-73,-68
-77,-69
-74,-68
-76,-66
-76,-69
-77,-68
-73,-68
-75,-66
-73,-67
-70,-66
-70,-69
-71,-70
-69,-65
-68,-67
-67,-67
-64,-65
-62,-67
-62,-66
-52,-67
-45,-67
-35,-62
-35,-64
-32,-63
-32,-63
-32,-64
-34,-62
-38,-65
-44,-69
-49,-64
-56,-68
-61,-70
-68,-72
-69,-73
-70,-69
-80,-68
-78,-67
-80,-66
-79,-73
-77,-69
-77,-69
-77,-66
-81,-70
-81,-68
-81,-68
-84,-69
-82,-68
-79,-68
-80,-70
-80,-72
-77,-68
-76,-66
-76,-68
-75,-72
-73,-72
-56,-69
-47,-72
-37,-69
-28,-71
-24,-72
-21,-81
-21,-81
-23,-98
-32,-121
-70,-154
-122,-175
-165,-187
-194,-192
-217,-186
-235,-189
-232,-188
-228,-182
-198,-179
-159,-171
-113,-163
-92,-153
-80,-132
-78,-105
-77,-79
-76,-57
-77,-52
-75,-48
-73,-51
-68,-47
-68,-52
-71,-49
-71,-49
-69,-47
-67,-48
-68,-44
-64,-48
-67,-46
-66,-46
-62,-42
-61,-44
-63,-42
-60,-41
-61,-45
-56,-39
-56,-42
-56,-38
-57,-36
-57,-39
-59,-40
-55,-38
-47,-38
-48,-34
-47,-36
-45,-34
-43,-31
-45,-25
-44,-25
-38,-25
-40,-22
-39,-25
-36,-28
-34,-21
-35,-18
-32,-19
-28,-15
-28,-14
-31,-17
-30,-16
-28,-20
-34,-24
-37,-25
-40,-31
-40,-37
-45,-38
-52,-41
-57,-44
-60,-50
-57,-53
-60,-53
-64,-56
-64,-58
-64,-62
-65,-59
-65,-58
-67,-59
-65,-57
-64,-59
-63,-58
-60,-58
-65,-61
-61,-67
-61,-59
-60,-55
-63,-60
-67,-61
-64,-56
-64,-61
-62,-63
-64,-64
-64,-64
-65,-59
-62,-59
-64,-58
-63,-61
-63,-59
-67,-57
-67,-57
-65,-60
-64,-60
-62,-60
-64,-63
-63,-59
-61,-59
-60,-59
-56,-60
-55,-59
-57,-60
-53,-59
-44,-61
-35,-60
-27,-62
-24,-58
-22,-55
-19,-55
-22,-56
-23,-54
-29,-60
-32,-61
-37,-64
-46,-57
-52,-64
-55,-64
-62,-66
-68,-65
-69,-63
-71,-63
-75,-64
-78,-66
-73,-67
-75,-65
-74,-64
-71,-63
-71,-67
-76,-64
-75,-58
-78,-65
-76,-64
-74,-67
-72,-70
-71,-66
-73,-64
-74,-71
-69,-72
-66,-72
-56,-70
-45,-74
-34,-71
-29,-70
-23,-69
-18,-77
-17,-87
-19,-96
-23,-117
-48,-145
-96,-165
-145,-188
-179,-192
-208,-195
-220,-194
-230,-200
-225,-194
-209,-188
-176,-186
-138,-173
-102,-167
-84,-155
-76,-128
-76,-96
-77,-69
-79,-53
-76,-52
-76,-54
-73,-57
-75,-55
-73,-53
-74,-51
-72,-56
-70,-51
-69,-50
-66,-56
-70,-53
-66,-49
-66,-49
-64,-50
-62,-52
-62,-46
-60,-52
-55,-47
-56,-47
-54,-53
-51,-46
-55,-47
-53,-45
-55,-45
-50,-44
-48,-39
-47,-41
-43,-40
-39,-34
-38,-34
-38,-35
-39,-30
-39,-28
-30,-29
-32,-24
-30,-22
-29,-27
-28,-29
-27,-23
-24,-20
-26,-21
-26,-23
-26,-23
-25,-27
-29,-31
-39,-28
-40,-37
-39,-41
-44,-45
-49,-50
-53,-49
-58,-52
-60,-56
-56,-64
-58,-61
-62,-60
-60,-62
-55,-66
-63,-67
-63,-62
-63,-64
-60,-63
-61,-60
-63,-63
-66,-63
-64,-60
-59,-64
-62,-63
-61,-62
-67,-61
-66,-60
-63,-63
-64,-58
-61,-64
-62,-63
-61,-60
-64,-59
-63,-60
-64,-57
-65,-59
-65,-58
-62,-58
-69,-61
-69,-60
-64,-64
-66,-60
-68,-63
-64,-62
-62,-61
-59,-60
-62,-58
-59,-61
-58,-52
-52,-54
-45,-55
-34,-56
-29,-53
-29,-55
-23,-49
-23,-48
-24,-49
-28,-53
-34,-48
-40,-54
-47,-52
-52,-53
-56,-58
-63,-52
-69,-57
-70,-52
-75,-51
-78,-55
-78,-54
-82,-55
-79,-51
-77,-52
-78,-54
-78,-56
-76,-54
-81,-54
-78,-56
-85,-59
-81,-59
-83,-62
-85,-57
-84,-59
-79,-57
-80,-57
-77,-55
-68,-52
-55,-54
-46,-56
-39,-55
-26,-60
-18,-57
-19,-65
-18,-80
-22,-91
-32,-118
-64,-142
-120,-170
-170,-180
-196,-182
-226,-186
-240,-185
-244,-184
-237,-180
-213,-173
-181,-170
-146,-160
-118,-149
-107,-126
-100,-102
-101,-70
-105,-50
-101,-43
-96,-42
-103,-41
-103,-45
-100,-43
-98,-37
-101,-43
-97,-41
-97,-37
-95,-40
-96,-36
-96,-41
-93,-39
-96,-37
-96,-40
-95,-40
-96,-43
-100,-38
-97,-37
-93,-38
-96,-34
-93,-32
-91,-29
-91,-28
-91,-31
-92,-30
-88,-31
-88,-35
-88,-31
-82,-28
-80,-27
-86,-20
-83,-24
-81,-19
-78,-24
-77,-23
-76,-20
-78,-17
-75,-16
-71,-21
-69,-19
-74,-16
-74,-15
-77,-19
-81,-22
-82,-25
-87,-27
-89,-28
-94,-35
-94,-40
-95,-43
-109,-42
-109,-52
-108,-54
-112,-55
-118,-56
-114,-57
-117,-53
-113,-59
-116,-60
-118,-63
-119,-64
-117,-61
-120,-63
-122,-58
-120,-62
-118,-63
-120,-63
-123,-61
-120,-64
-119,-62
-125,-61
-125,-60
-123,-62
-127,-64
-128,-60
-126,-70
-126,-67
-124,-66
-125,-65
-125,-64
-128,-67
-126,-66
-127,-67
-128,-67
-125,-67
-124,-66
-123,-64
-121,-63
-119,-68
-118,-70
-117,-64
-110,-64
-108,-67
-101,-65
-100,-66
-97,-67
-94,-60
-94,-59
-97,-64
-100,-69
-109,-70
-114,-67
-119,-69
-121,-70
-125,-73
-133,-69
-135,-71
-134,-72
-137,-71
-143,-71
-140,-71
-142,-76
-141,-73
-139,-74
-143,-74
-141,-71
-144,-76
-143,-78
-145,-76
-145,-73
-145,-76
-144,-76
-145,-76
-144,-78
-142,-80
-142,-81
-136,-83
-129,-81
-125,-80
-116,-80
-111,-78
-108,-80
-106,-84
-108,-96
-112,-110
-120,-128
-132,-146
-169,-166
-197,-172
-219,-180
-239,-180
-256,-186
-263,-185
-257,-184
-244,-178
-229,-168
-201,-166
-185,-157
-173,-141
-166,-121
-162,-100
-159,-85
-160,-79
-159,-71
-157,-75
-158,-68
-154,-69
-155,-68
-156,-65
-156,-67
-152,-66
-154,-67
-150,-62
-151,-67
-151,-66
-149,-64
-148,-64
-149,-66
-148,-64
-148,-64
-149,-64
-146,-60
-143,-60
-144,-60
-142,-62
-141,-53
-139,-56
-142,-54
-138,-54
-136,-52
-135,-51
-137,-49
-136,-48
-133,-46
-134,-48
-130,-45
-127,-43
-126,-38
-127,-38
-128,-40
-124,-41
-123,-38
-122,-36
-122,-39
-123,-43
-121,-45
-124,-43
-121,-44
-123,-54
-131,-54
-132,-59
-135,-66
-135,-69
-137,-71
-136,-63
-138,-63
-137,-67
-138,-71
-137,-77
-142,-70
-141,-76
-140,-73
-139,-77
-137,-75
-137,-75
-138,-77
-142,-76
-135,-77
-136,-74
-141,-72
-138,-78
-139,-76
-138,-74
-138,-74
-138,-74
-138,-72
-135,-76
-137,-78
-141,-78
-139,-71
-140,-78
-137,-73
-137,-74
-138,-76
-135,-78
-135,-74
-138,-75
-138,-77
-132,-75
-135,-72
-132,-76
-130,-78
-128,-73
-126,-73
-124,-72
-117,-73
-111,-71
-100,-74
-104,-72
-104,-70
-103,-72
-97,-75
-95,-77
-98,-77
-96,-72
-101,-75
-104,-80
-104,-77
-104,-77
-106,-84
-106,-82
-104,-79
-104,-75
-104,-78
-101,-84
-102,-78
-104,-78
-101,-78
-99,-79
-96,-81
-95,-83
-90,-85
-92,-80
-89,-77
-85,-82
-83,-79
-82,-78
-80,-80
-76,-81
-73,-78
-68,-79
-57,-83
-48,-83
-44,-81
-36,-82
-34,-88
-34,-92
-39,-110
-50,-128
-63,-152
-93,-178
-124,-191
-145,-195
-168,-191
-185,-193
-188,-195
-184,-191
-180,-188
-160,-183
-135,-179
-119,-170
-99,-156
-93,-125
-91,-95
-89,-72
-91,-69
-89,-64
-91,-64
-86,-66
-85,-69
-84,-64
-88,-64
-85,-63
-84,-60
-87,-64
-83,-61
-84,-64
-85,-64
-83,-63
-86,-63
-83,-60
-84,-62
-85,-63
-87,-60
-86,-59
-85,-63
-83,-62
-86,-58
-87,-58
-82,-53
-81,-51
-81,-51
-83,-51
-85,-51
-88,-48
-83,-45
-87,-45
-85,-39
-86,-40
-84,-40
-82,-43
-84,-41
-80,-37
-84,-34
-82,-36
-82,-35
-83,-37
-83,-37
-85,-36
-85,-41
-87,-36
-88,-46
-89,-49
-97,-53
-101,-58
-106,-61
-110,-65
-114,-71
-112,-73
-116,-77
-118,-79
-118,-77
-120,-76
-118,-85
-120,-81
-123,-83
-126,-82
-125,-79
-128,-76
-120,-80
-121,-84
-124,-79
-128,-81
-124,-79
-127,-73
-127,-76
-132,-71
-129,-76
-129,-77
-127,-75
-125,-80
-130,-76
-130,-78
-131,-77
-130,-76
-130,-79
-132,-80
-130,-81
-128,-80
-129,-81
-123,-84
-120,-80
-123,-77
-121,-77
-116,-79
-117,-77
-110,-76
-106,-81
-95,-73
-94,-68
-94,-69
-89,-64
-94,-59
-92,-56
-97,-68
-102,-75
-109,-74
-114,-74
-121,-67
-121,-74
-128,-76
-131,-78
-135,-77
-142,-75
-142,-76
-144,-74
-147,-75
-147,-76
-142,-79
-145,-78
-147,-79
-146,-79
-148,-75
-148,-74
-149,-78
-149,-82
-148,-82
-149,-82
-146,-82
-147,-79
-145,-80
-136,-76
-134,-78
-123,-77
-113,-80
-100,-77
-90,-80
-85,-80
-80,-85
-83,-99
-83,-112
-95,-134
-133,-162
-185,-178
-221,-193
-251,-194
-272,-199
-283,-201
-280,-207
-271,-198
-250,-192
-220,-177
-191,-170
-172,-163
-160,-142
-159,-114
-159,-85
-156,-63
-154,-64
-155,-61
-150,-63
-149,-61
-146,-60
-146,-56
-147,-62
-146,-70
-143,-65
-146,-64
-143,-66
-139,-63
-139,-64
-142,-62
-141,-63
-136,-59
-139,-62
-135,-59
-136,-59
-131,-62
-134,-60
-128,-60
-133,-58
-128,-56
-124,-55
-121,-53
-125,-54
-120,-54
-119,-51
-114,-52
-112,-53
-112,-48
-113,-46
-110,-46
-108,-44
-104,-42
-102,-38
-98,-38
-101,-41
-98,-44
-99,-44
-98,-40
-100,-37
-101,-41
-100,-45
-102,-52
-104,-54
-105,-57
-109,-54
-112,-63
-115,-72
-118,-73
-120,-74
-122,-77
-123,-75
-124,-80
-126,-81
-124,-80
-126,-83
-123,-83
-124,-85
-127,-86
-128,-77
-129,-81
-127,-84
-128,-82
-128,-84
-126,-81
-130,-83
-125,-87
-126,-82
-126,-81
-128,-84
-123,-80
-120,-83
-126,-82
-127,-84
-123,-86
-128,-82
-126,-83
-127,-85
-122,-79
-127,-84
-121,-85
-117,-83
-121,-89
-116,-87
-112,-82
-113,-86
-101,-81
-100,-78
-96,-83
-93,-80
-90,-83
-88,-79
-88,-74
-96,-80
-96,-80
-100,-80
-101,-86
-107,-87
-114,-87
-120,-88
-123,-91
-129,-90
-127,-94
-131,-91
-129,-92
-132,-87
-132,-92
-133,-89
-131,-91
-133,-95
-136,-90
-135,-93
-137,-93
-136,-95
-135,-94
-135,-94
-136,-96
-139,-93
-139,-98
-138,-97
-132,-102
-128,-99
-118,-100
-113,-96
-104,-99
-96,-97
-91,-97
-94,-102
-100,-108
-106,-123
-114,-146
-130,-167
-168,-190
-204,-209
-232,-218
-254,-222
-265,-217
-269,-217
-264,-211
-254,-202
-243,-195
-216,-192
-190,-186
-174,-172
-164,-154
-160,-127
-159,-101
-157,-84
-159,-82
-158,-79
-159,-82
-157,-83
-154,-84
-152,-82
-153,-83
-156,-80
-153,-83
-153,-81
-152,-77
-156,-76
-155,-80
-158,-80
-152,-78
-151,-76
-158,-77
-158,-79
-164,-78
-165,-75
-163,-76
-166,-72
-166,-73
-168,-71
-162,-74
-162,-70
-165,-72
-161,-70
-157,-64
-158,-65
-157,-62
-155,-62
-155,-62
-151,-58
-150,-56
-148,-61
-149,-60
-147,-56
-147,-54
-146,-59
-150,-53
-148,-55
-148,-54
-151,-56
-149,-57
-156,-64
-157,-68
-157,-70
-162,-69
-164,-77
-168,-77
-168,-85
-172,-85
-173,-89
-174,-95
-172,-90
-174,-90
-176,-96
-175,-90
-176,-92
-175,-93
-175,-91
-180,-94
-176,-93
-181,-95
-172,-94
-181,-89
-179,-91
-177,-91
-182,-89
-179,-89
-180,-93
-180,-88
-182,-89
-181,-91
-182,-92
-182,-93
-184,-91
-189,-91
-183,-89
-188,-88
-184,-88
-178,-87
-180,-89
-178,-91
-179,-92
-179,-92
-181,-94
-176,-90
-175,-88
-170,-84
-164,-89
-156,-91
-149,-86
-145,-91
-142,-86
-142,-82
-143,-78
-143,-80
-150,-86
-156,-87
-156,-88
-160,-92
-171,-88
-176,-88
-177,-91
-181,-88
-181,-87
-187,-91
-185,-88
-191,-90
-188,-92
-184,-93
-184,-95
-182,-95
-182,-94
-186,-94
-185,-90
-187,-91
-186,-94
-188,-96
-190,-95
-185,-96
-180,-95
-188,-93
-185,-93
-172,-98
-165,-96
-151,-100
-139,-95
-130,-92
-128,-95
-125,-97
-130,-109
-126,-123
-140,-141
-170,-166
-222,-183
-265,-202
-298,-211
-324,-210
-341,-208
-345,-208
-334,-199
-311,-191
-272,-184
-235,-181
-203,-178
-189,-163
-184,-144
-185,-124
-183,-100
-180,-88
-178,-84
-175,-83
-178,-82
-178,-81
-179,-84
-177,-85
-176,-81
-175,-82
-173,-80
-170,-82
-169,-81
-167,-83
-170,-81
-167,-79
-175,-81
-174,-79
-174,-73
-167,-72
-165,-75
-163,-75
-161,-76
-157,-75
-165,-79
-156,-78
-157,-76
-156,-76
-155,-72
-155,-72
-149,-65
-150,-68
-148,-66
-146,-67
-148,-62
-142,-61
-141,-60
-144,-56
-138,-55
-136,-59
-133,-59
-130,-55
-127,-54
-125,-54
-128,-57
-128,-64
-128,-71
-132,-68
-136,-71
-138,-76
-144,-79
-143,-79
-149,-88
-149,-87
-153,-84
-156,-88
-153,-85
-152,-93
-151,-89
-151,-90
-151,-96
-152,-99
-153,-94
-156,-90
-152,-92
-155,-90
-153,-93
-153,-95
-156,-96
-155,-95
-150,-98
-149,-95
-144,-85
-144,-85
-145,-94
-143,-96
-148,-91
-144,-90
-144,-98
-144,-98
-141,-93
-135,-90
-131,-88
-130,-93
-130,-93
-125,-90
-128,-87
-124,-96
-128,-97
-132,-97
-132,-99
-131,-103
-134,-96
-131,-92
-124,-88
-122,-87
-124,-89
-119,-92
-111,-85
-106,-81
-101,-79
-93,-88
-92,-100
-94,-95
-95,-95
-98,-99
-104,-93
-109,-94
-117,-98
-127,-100
-133,-100
-132,-101
-137,-100
-134,-94
-132,-91
-135,-96
-132,-107
-136,-111
-137,-111
-132,-104
-137,-107
-133,-108
-137,-111
-134,-111
-138,-111
-138,-111
-135,-112
-142,-118
-140,-114
-134,-117
-137,-116
-136,-119
-132,-114
-124,-114
-119,-113
-108,-118
-93,-116
-82,-116
-71,-117
-67,-117
-68,-114
-70,-127
-68,-141
-85,-158
-118,-177
-160,-204
-201,-219
-235,-218
-263,-218
-275,-217
-272,-210
-260,-200
-233,-202
-193,-196
-161,-187
-136,-184
-125,-170
-127,-147
-126,-125
-123,-107
-116,-98
-116,-101
-121,-98
-119,-100
-116,-96
-116,-100
-114,-100
-116,-92
-113,-92
-110,-94
-108,-96
-109,-92
-110,-91
-106,-90
-107,-88
-103,-88
-102,-92
-97,-93
-94,-87
-95,-86
-94,-84
-94,-82
-94,-80
-95,-80
-90,-78
-89,-79
-88,-75
-85,-75
-86,-71
-86,-73
-82,-70
-83,-66
-83,-64
-80,-64
-76,-66
-72,-63
-71,-64
-64,-56
-66,-54
-69,-52
-63,-54
-66,-55
-64,-56
-68,-56
-67,-61
-69,-62
-67,-64
-71,-65
-79,-63
-76,-72
-81,-74
-81,-78
-86,-76
-85,-80
-88,-80
-85,-86
-85,-89
-82,-87
-82,-84
-84,-85
-82,-86
-85,-83
-84,-86
-82,-84
-80,-87
-84,-85
-80,-89
-82,-82
-78,-86
-80,-83
-80,-84
-80,-82
-77,-84
-79,-88
-81,-89
-79,-89
-81,-83
-78,-83
-75,-87
-82,-81
-78,-83
-78,-82
-77,-81
-78,-78
-74,-80
-71,-83
-70,-81
-69,-81
-64,-81
-65,-77
-66,-78
-61,-77
-51,-76
-47,-78
-41,-79
-35,-77
-37,-73
-31,-73
-31,-75
-33,-73
-42,-77
-44,-77
-50,-79
-57,-79
-60,-81
-63,-82
-67,-80
-71,-81
-75,-80
-73,-78
-77,-78
-76,-79
-76,-80
-74,-79
-73,-80
-75,-78
-72,-76
-74,-80
-78,-82
-72,-82
-72,-81
-75,-80
-74,-82
-76,-78
-74,-77
-68,-78
-65,-76
-61,-77
-46,-73
-30,-79
-20,-82
-9,-83
-7,-83
-10,-85
-12,-93
-12,-108
-26,-127
-64,-153
-107,-170
-146,-181
-183,-182
-205,-182
-212,-175
-213,-170
-191,-168
-166,-161
-124,-153
-90,-148
-72,-147
-60,-130
-59,-101
-64,-83
-65,-69
-64,-68
-60,-65
-59,-62
-57,-62
-54,-61
-54,-61
-55,-59
-54,-57
-55,-62
-52,-62
-52,-58
-52,-57
-48,-56
-45,-57
-45,-59
-42,-55
-47,-53
-46,-51
-46,-53
-40,-50
-39,-48
-37,-50
-35,-48
-32,-47
-34,-44
-33,-45
-38,-47
-32,-41
-31,-43
-32,-37
-28,-41
-18,-40
-17,-34
-16,-34
-17,-30
-16,-31
-15,-34
-17,-29
-13,-27
-15,-29
-11,-26
-11,-31
-10,-22
-5,-21
-8,-22
-13,-24
-15,-31
-16,-39
-19,-49
-26,-51
-28,-53
-28,-55
-31,-54
-32,-58
-33,-58
-31,-53
-32,-54
-33,-61
-32,-59
-32,-59
-32,-60
-35,-58
-33,-58
-33,-62
-32,-62
-33,-59
-32,-57
-35,-56
-38,-60
-33,-61
-31,-58
-35,-62
-29,-56
-31,-58
-31,-57
-34,-60
-37,-61
-33,-56
-31,-59
-29,-57
-31,-55
-31,-58
-30,-60
-30,-58
-25,-56
-28,-55
-30,-53
-27,-50
-28,-54
-29,-55
-25,-60
-23,-53
-21,-52
-21,-57
-15,-54
-14,-53
-10,-48
-7,-50
0,-51
9,-55
15,-54
15,-50
23,-50
21,-51
17,-48
11,-48
3,-50
-4,-51
-7,-54
-6,-59
-7,-54
-12,-55
-17,-52
-19,-53
-19,-55
-24,-50
-25,-55
-26,-51
-33,-49
-27,-55
-21,-51
-21,-52
-23,-53
-24,-49
-30,-47
-27,-46
-26,-50
-25,-48
-26,-49
-22,-51
-19,-51
-19,-53
-10,-50
1,-46
18,-46
28,-43
35,-47
43,-43
43,-45
41,-52
39,-65
41,-75
19,-104
-23,-131
-63,-144
-100,-151
-133,-145
-156,-148
-160,-149
-158,-147
-139,-140
-109,-128
-72,-125
-42,-121
-18,-110
-10,-88
-13,-62
-12,-46
-13,-30
-8,-27
-5,-25
-2,-29
-2,-24
3,-20
0,-20
1,-23
-1,-18
-3,-19
-1,-24
-2,-22
3,-19
1,-19
3,-13
0,-14
4,-19
8,-15
6,-14
7,-12
8,-10
12,-12
12,-9
14,-10
16,-12
16,-10
15,-8
15,-8
17,-6
19,-4
18,-1
22,-1
24,0
23,0
24,-1
26,-1
30,6
31,8
33,7
36,10
39,12
37,14
35,10
35,9
39,7
35,6
31,0
32,4
27,0
26,-4
20,-12
21,-12
17,-18
16,-21
14,-18
11,-21
10,-22
8,-27
7,-24
8,-28
7,-29
12,-27
14,-28
10,-28
11,-26
9,-20
7,-22
7,-27
7,-25
7,-25
9,-24
9,-28
12,-21
9,-23
11,-22
7,-24
10,-25
10,-22
10,-22
9,-21
6,-22
16,-21
11,-21
14,-21
14,-30
15,-28
15,-24
10,-29
12,-25
12,-24
12,-28
17,-26
19,-25
19,-23
22,-24
25,-23
24,-19
26,-23
37,-22
43,-21
51,-21
54,-28
53,-18
55,-23
48,-23
48,-21
43,-19
42,-21
39,-24
31,-24
27,-25
21,-26
17,-29
11,-29
13,-29
13,-23
10,-22
10,-24
7,-22
8,-24
7,-28
9,-29
7,-27
7,-26
8,-30
7,-30
9,-27
4,-29
8,-29
6,-31
6,-28
10,-23
16,-26
25,-27
29,-28
43,-27
51,-23
62,-27
66,-27
70,-34
69,-35
67,-44
60,-66
31,-91
-21,-118
-57,-134
-90,-141
-118,-139
-132,-136
-132,-139
-124,-134
-110,-128
-75,-120
-36,-111
-5,-104
10,-98
13,-76
15,-47
16,-27
19,-12
23,-8
20,-2
22,-7
22,-6
23,-1
22,-6
19,-4
20,0
21,-1
23,-1
26,-3
24,2
26,-1
27,-1
28,4
30,1
31,1
36,2
36,1
39,0
39,2
34,6
38,6
40,4
40,8
43,14
41,13
46,14
52,16
50,18
54,20
53,21
53,23
57,24
54,24
56,29
55,26
59,27
61,27
61,31
63,28
62,31
61,33
56,30
55,26
54,26
48,25
49,15
44,9
39,9
37,0
36,2
39,-4
39,0
38,-4
37,-8
37,-6
34,-2
34,-8
33,-6
35,-7
34,-7
36,-4
36,-5
33,-3
34,-3
33,-5
33,-7
35,-5
38,-2
37,-5
36,-2
37,3
34,-2
36,-2
33,-4
28,-9
32,-4
37,-3
37,-5
36,-4
35,-6
38,-2
34,1
37,0
40,0
38,0
38,0
36,-4
37,-5
39,-3
38,-3
37,-5
37,-2
36,-1
40,1
40,0
41,-2
44,-2
51,-2
53,-3
54,-4
57,-2
61,5
64,3
71,3
79,3
79,2
79,2
82,6
83,4
78,2
72,-2
65,-1
59,3
54,-2
54,-7
50,-4
46,-5
45,-6
38,-3
34,1
38,3
39,-4
38,-3
34,-5
35,-8
37,-8
38,-7
36,-3
37,-7
33,0
34,-5
32,1
29,-1
33,0
39,-7
40,-3
46,-6
54,-6
65,-3
73,-3
78,-4
80,-6
87,-7
79,-8
81,-24
85,-43
68,-69
25,-93
-23,-117
-55,-125
-87,-130
-100,-129
-111,-124
-104,-125
-95,-117
-66,-109
-32,-100
4,-101
24,-90
35,-71
37,-46
38,-16
39,0
35,12
36,10
39,11
37,12
40,9
46,15
42,14
41,17
45,15
44,15
43,11
44,13
46,13
42,17
43,13
48,15
47,15
45,20
47,14
49,18
53,18
52,20
53,18
54,21
56,23
59,22
53,26
58,28
57,27
59,31
62,31
61,29
62,29
61,33
63,40
66,38
67,36
66,36
69,38
70,40
70,38
70,39
68,38
69,39
67,34
65,35
60,30
58,26
51,22
47,18
50,14
50,11
47,4
44,3
47,4
39,-2
41,-2
40,0
41,-2
35,-3
38,-2
33,-5
37,-6
40,-3
38,-2
35,0
33,-3
34,0
31,1
32,-2
32,-3
31,0
38,-4
36,0
35,-1
28,2
27,3
30,4
26,0
27,1
31,2
31,2
27,0
32,-3
33,-1
29,5
30,8
28,0
27,0
25,0
27,-1
28,2
29,1
29,0
30,0
29,3
36,0
38,4
40,2
47,3
53,4
62,6
62,3
63,6
60,7
58,7
52,7
50,7
40,5
38,1
36,0
28,2
23,4
19,2
10,0
9,0
9,2
9,5
7,3
5,-5
3,-1
2,1
6,3
6,-2
3,0
2,0
3,4
4,1
8,-1
7,-2
4,-1
8,-2
10,-1
9,2
17,-2
28,0
38,-2
50,-1
55,-2
54,-10
53,-14
50,-23
52,-43
31,-68
-16,-90
-63,-114
-99,-126
-131,-124
-150,-126
-159,-127
-160,-124
-139,-115
-112,-106
-72,-106
-37,-96
-20,-83
-8,-64
-7,-40
-7,-12
-5,6
-6,16
-4,17
-2,13
-5,18
-8,19
-6,19
-8,21
-7,21
-9,20
-1,18
-8,21
-2,17
-8,17
-5,19
-10,18
-7,18
-1,18
-1,16
0,19
2,20
0,18
1,18
2,20
0,20
2,25
-2,24
2,22
5,30
2,26
0,27
3,32
5,32
8,28
5,31
8,31
6,34
5,38
6,36
10,32
9,34
8,35
8,37
7,33
6,33
1,28
-2,25
-7,21
-4,15
-8,11
-12,10
-14,6
-20,1
-23,0
-26,-7
-26,-8
-31,-6
-35,-10
-33,-15
-34,-9
-35,-9
-32,-13
-32,-16
-33,-15
-36,-17
-38,-15
-44,-21
-43,-18
-44,-19
-43,-20
-45,-17
-42,-17
-42,-19
-45,-16
-48,-15
-48,-13
-52,-18
-53,-16
-49,-19
-50,-20
-48,-19
-49,-20
-54,-18
-54,-18
-54,-22
-53,-20
-54,-24
-54,-24
-54,-24
-54,-19
-50,-21
-49,-16
-49,-20
-48,-24
-50,-28
-46,-26
-39,-22
-33,-23
-23,-25
-22,-21
-23,-23
-23,-19
-21,-20
-32,-23
-36,-24
-40,-27
-44,-28
-45,-26
-54,-30
-54,-32
-61,-32
-63,-32
-68,-30
-71,-29
-77,-29
-78,-27
-80,-31
-79,-32
-79,-34
-76,-39
-77,-32
-78,-35
-82,-33
-82,-36
-84,-33
-84,-37
-83,-36
-85,-38
-87,-36
-81,-42
-81,-40
-77,-39
-68,-39
-59,-44
-48,-40
-43,-42
-36,-40
-31,-41
-32,-49
-35,-61
-35,-67
-56,-92
-100,-116
-141,-135
-175,-150
-212,-153
-233,-151
-238,-146
-234,-144
-226,-141
-199,-134
-164,-129
-133,-126
-111,-121
-103,-106
-103,-78
-106,-55
-103,-34
-100,-29
-97,-30
-101,-30
-99,-35
-105,-31
-100,-30
-99,-31
-103,-26
-96,-30
-102,-34
-101,-30
-98,-30
-94,-32
-92,-28
-90,-25
-90,-23
-94,-30
-99,-27
-98,-27
-95,-29
-91,-28
-92,-22
-92,-29
-88,-27
-94,-21
-93,-21
-89,-25
-90,-27
-86,-29
-84,-26
-90,-19
-93,-20
-89,-17
-84,-18
-87,-13
-85,-12
-81,-15
-83,-11
-81,-12
-79,-10
-81,-10
-80,-11
-83,-15
-83,-13
-88,-16
-93,-16
-94,-19
-95,-23
-97,-27
-101,-29
-101,-36
-106,-38
-112,-44
-113,-52
-117,-50
-119,-48
-119,-54
-113,-47
-117,-51
-116,-49
-117,-58
-117,-53
-122,-50
-120,-53
-122,-52
-122,-52
-122,-53
-122,-57
-124,-51
-123,-54
-123,-50
-126,-54
-125,-50
-124,-50
-124,-47
-126,-52
-127,-53
-127,-55
-125,-58
-125,-58
-126,-58
-128,-58
-130,-54
-130,-54
-131,-54
-127,-57
-127,-52
-125,-54
-127,-51
-126,-59
-124,-61
-121,-53
-122,-48
-122,-55
-119,-54
-119,-55
-117,-49
-110,-54
-101,-55
-96,-51
-94,-48
-92,-49
-89,-52
-94,-51
-98,-49
-105,-54
-108,-55
-108,-58
-115,-58
-114,-55
-122,-55
-127,-57
-136,-56
-138,-58
-135,-58
-139,-56
-137,-55
-138,-57
-135,-59
-141,-60
-146,-61
-141,-61
-139,-62
-143,-60
-150,-62
-144,-63
-148,-61
-147,-67
-147,-67
-146,-64
-145,-64
-141,-61
-135,-66
-124,-61
-116,-61
-104,-65
-95,-63
-84,-63
-83,-66
-91,-71
-91,-78
-100,-98
-128,-127
-174,-153
-213,-165
-246,-175
-277,-173
-291,-170
-290,-167
-287,-163
-268,-156
-239,-151
-203,-152
-172,-141
-157,-134
-155,-119
-152,-90
-149,-64
-148,-50
-146,-48
-149,-48
-146,-54
-148,-56
-145,-56
-144,-56
-146,-50
-145,-54
-143,-50
-150,-51
-150,-48
-149,-48
-149,-47
-148,-44
-146,-44
-144,-52
-142,-51
-139,-49
-140,-48
-137,-45
-136,-47
-136,-47
-138,-46
-134,-49
-137,-47
-133,-47
-128,-41
-127,-40
-126,-34
-123,-36
-125,-34
-123,-32
-120,-30
-122,-34
-117,-35
-112,-34
-111,-31
-110,-29
-113,-30
-109,-22
-112,-24
-109,-29
-109,-30
-112,-32
-112,-35
-113,-36
-116,-43
-128,-48
-124,-51
-126,-52
-126,-50
-130,-47
-134,-47
-135,-61
-138,-76
-138,-79
-137,-76
-139,-76
-139,-74
-136,-72
-139,-71
-137,-75
-141,-72
-139,-72
-137,-69
-137,-70
-136,-67
-140,-70
-144,-70
-140,-70
-145,-69
-141,-71
-138,-71
-143,-76
-142,-79
-138,-78
-139,-74
-141,-73
-143,-70
-140,-70
-141,-74
-141,-75
-141,-73
-141,-76
-143,-72
-144,-74
-145,-73
-146,-72
-142,-72
-142,-75
-138,-72
-142,-74
-141,-78
-137,-74
-136,-78
-128,-76
-130,-74
-126,-74
-128,-75
-121,-74
-118,-69
-110,-69
-104,-77
-100,-72
-96,-75
-93,-72
-91,-70
-94,-70
-98,-68
-107,-72
-111,-76
-117,-77
-122,-77
-126,-77
-131,-77
-132,-80
-132,-81
-134,-77
-136,-78
-133,-79
-138,-79
-132,-80
-135,-81
-134,-81
-137,-80
-137,-80
-134,-83
-135,-79
-137,-80
-137,-79
-138,-79
-136,-76
-139,-79
-139,-84
-137,-80
-128,-83
-118,-86
-102,-80
-94,-75
-87,-76
-79,-81
-79,-79
-81,-84
-80,-100
-85,-111
-113,-138
-158,-164
-194,-179
-233,-187
-267,-182
-283,-178
-286,-179
-278,-174
-260,-175
-231,-163
-198,-159
-166,-151
-144,-149
-138,-133
-142,-101
-138,-79
-136,-69
-140,-61
-134,-61
-135,-61
-133,-68
-135,-61
-131,-61
-131,-59
-133,-53
-131,-48
-131,-50
-130,-54
-127,-55
-125,-61
-126,-62
-126,-54
-125,-53
-121,-51
-123,-50
-122,-55
-120,-50
-117,-52
-115,-54
-112,-48
-112,-50
-107,-47
-100,-43
-103,-34
-99,-30
-102,-35
-102,-41
-100,-46
-104,-36
-100,-32
-96,-33
-99,-28
-98,-28
-96,-27
-93,-18
-94,-23
-91,-25
-87,-26
-86,-25
-83,-31
-82,-34
-83,-32
-87,-42
-87,-42
-90,-43
-91,-46
-98,-55
-97,-56
-101,-58
-104,-60
-104,-60
-102,-58
-106,-59
-105,-60
-102,-65
-106,-73
-100,-72
-97,-70
-101,-66
-104,-70
-103,-68
-100,-65
-102,-65
-101,-61
-104,-68
-109,-71
-100,-70
-97,-70
-102,-70
-98,-66
-104,-68
-97,-67
-94,-71
-97,-69
-95,-67
-92,-70
-90,-72
-94,-70
-92,-68
-90,-68
-86,-70
-83,-68
-88,-67
-84,-70
-87,-72
-80,-71
-79,-70
-77,-65
-75,-71
-73,-73
-67,-71
-67,-69
-65,-68
-67,-69
-64,-69
-53,-72
-44,-64
-37,-64
-39,-63
-37,-64
-31,-61
-35,-61
-39,-66
-48,-68
-52,-74
-53,-75
-56,-75
-65,-73
-67,-72
-73,-74
-80,-71
-80,-73
-80,-75
-82,-70
-79,-74
-79,-75
-78,-78
-80,-74
-80,-77
-80,-75
-80,-79
-78,-75
-81,-73
-82,-67
-83,-67
-80,-72
-78,-67
-75,-68
-73,-72
-75,-75
-69,-70
-55,-71
-40,-69
-27,-64
-16,-68
-7,-70
-9,-72
-14,-80
-19,-102
-35,-121
-74,-151
-117,-176
-151,-190
-187,-192
-212,-186
-223,-189
-221,-186
-203,-182
-176,-176
-138,-169
-109,-168
-89,-163
-78,-151
-72,-126
-76,-93
-70,-76
-68,-70
-69,-67
-64,-68
-66,-65
-60,-66
-67,-68
-72,-67
-68,-66
-67,-68
-62,-64
-64,-71
-63,-69
-66,-67
-64,-66
-59,-62
-57,-59
-52,-64
-50,-66
-48,-66
-45,-64
-44,-59
-43,-58
-42,-56
-40,-60
-32,-56
-29,-55
-25,-57
-21,-58
-20,-56
-19,-53
-18,-57
-19,-48
-26,-46
-28,-46
-24,-45
-17,-40
-12,-38
-11,-43
-8,-38
-4,-39
2,-45
2,-36
3,-40
5,-35
-3,-42
-11,-46
-14,-45
-18,-54
-19,-60
-21,-62
-21,-65
-23,-68
-23,-74
-26,-77
-26,-80
-26,-82
-26,-82
-27,-80
-25,-84
-21,-84
-25,-84
-27,-84
-27,-89
-27,-87
-24,-88
-26,-86
-24,-86
-24,-84
-23,-83
-19,-85
-20,-84
-15,-80
-17,-83
-19,-80
-20,-82
-20,-86
-15,-85
-12,-84
-9,-82
-12,-80
-13,-84
-14,-83
-15,-84
-17,-84
-16,-78
-11,-84
-14,-83
-12,-82
-8,-84
-9,-83
-9,-82
-4,-80
-7,-80
-4,-81
-6,-85
-1,-85
3,-79
15,-82
22,-78
27,-77
26,-80
27,-79
30,-73
25,-72
18,-74
17,-78
12,-84
5,-83
-2,-82
-8,-85
-9,-85
-10,-84
-10,-83
-11,-78
-13,-78
-12,-81
-8,-83
-12,-84
-12,-82
-12,-80
-9,-81
-12,-83
-15,-82
-16,-80
-20,-81
-15,-84
-10,-86
-12,-84
-15,-83
-13,-84
-10,-82
1,-89
11,-84
23,-85
34,-84
38,-88
47,-80
51,-86
53,-95
51,-109
36,-129
-6,-161
-59,-185
-96,-204
-136,-211
-164,-210
-178,-211
-182,-210
-171,-205
-149,-204
-106,-199
-66,-191
-40,-181
-26,-170
-23,-145
-25,-110
-25,-82
-19,-66
-16,-61
-19,-64
-18,-66
-20,-67
-18,-64
-21,-64
-16,-62
-14,-62
-14,-63
-15,-65
-12,-60
-13,-65
-13,-59
-15,-60
-7,-58
-13,-59
-9,-61
-7,-60
-4,-57
-2,-56
-5,-54
-2,-54
-2,-56
1,-53
1,-47
2,-48
-3,-48
-1,-45
-1,-49
5,-50
7,-42
9,-42
13,-40
14,-37
10,-38
10,-34
14,-36
23,-37
20,-33
20,-36
20,-35
23,-33
21,-35
17,-32
14,-36
7,-38
9,-44
7,-47
9,-50
2,-55
0,-59
-6,-65
-9,-68
-12,-69
-14,-71
-14,-70
-12,-73
-13,-74
-15,-75
-14,-74
-12,-74
-17,-71
-15,-74
-17,-72
-18,-74
-19,-70
-19,-72
-13,-76
-13,-72
-12,-74
-15,-74
-14,-74
-15,-70
-19,-74
-17,-74
-18,-77
-13,-74
-14,-73
-16,-73
-14,-76
-14,-77
-13,-73
-17,-76
-20,-73
-20,-78
-16,-78
-15,-76
-11,-77
-11,-77
-11,-74
-11,-75
-9,-74
-12,-77
-4,-73
4,-72
15,-70
22,-73
25,-69
28,-68
28,-72
23,-72
18,-76
15,-70
5,-72
1,-76
-2,-78
-12,-77
-13,-80
-14,-75
-18,-79
-21,-68
-26,-71
-25,-76
-29,-74
-31,-75
-28,-78
-29,-78
-23,-78
-27,-75
-25,-79
-28,-78
-30,-78
-30,-79
-31,-80
-29,-76
-30,-78
-29,-77
-25,-75
-16,-78
-8,-74
-2,-75
7,-74
19,-77
25,-71
31,-75
31,-80
33,-88
31,-113
0,-135
-54,-157
-105,-174
-136,-183
-164,-186
-179,-179
-183,-184
-180,-187
-160,-178
-120,-173
-83,-166
-53,-165
-36,-151
-31,-128
-33,-100
-36,-76
-37,-58
-34,-61
-37,-59
-31,-55
-27,-55
-28,-55
-27,-53
-28,-50
-28,-55
-26,-52
-27,-52
-29,-51
-25,-52
-21,-51
-22,-47
-16,-43
-19,-45
-21,-47
-19,-46
-16,-47
-16,-40
-11,-41
-13,-45
-14,-37
-12,-41
-12,-40
-12,-41
-8,-36
-9,-35
-4,-30
-7,-32
-6,-33
0,-28
2,-34
8,-26
1,-24
4,-20
7,-24
9,-16
9,-21
9,-19
10,-16
13,-16
13,-20
11,-22
10,-21
11,-28
4,-25
1,-28
-7,-28
-7,-41
-9,-37
-14,-45
-12,-50
-13,-50
-18,-51
-19,-54
-18,-50
-16,-51
-16,-55
-16,-54
-15,-57
-18,-53
-14,-59
-17,-55
-21,-49
-20,-48
-18,-48
-18,-48
-14,-55
-20,-48
-17,-54
-20,-52
-19,-50
-20,-50
-18,-50
-20,-52
-19,-51
-22,-51
-22,-51
-20,-52
-20,-51
-19,-50
-16,-43
-17,-50
-16,-51
-20,-48
-17,-48
-16,-49
-16,-46
-11,-50
-5,-49
-10,-49
-6,-46
-2,-44
1,-40
9,-41
17,-43
23,-44
23,-42
23,-44
22,-40
23,-43
18,-45
15,-47
5,-45
0,-47
-8,-50
-13,-51
-18,-52
-19,-53
-21,-51
-22,-51
-26,-49
-20,-45
-25,-48
-27,-47
-29,-46
-31,-47
-31,-50
-23,-53
-25,-50
-23,-45
-24,-48
-24,-54
-22,-50
-23,-52
-28,-50
-25,-55
-18,-52
-11,-50
5,-50
15,-48
21,-48
33,-48
43,-47
36,-48
34,-54
33,-75
19,-102
-31,-132
-79,-150
-111,-162
-145,-164
-166,-158
-172,-158
-173,-158
-156,-156
-120,-150
-79,-147
-45,-137
-22,-134
-21,-111
-23,-83
-24,-55
-23,-46
-29,-34
-27,-32
-23,-35
-22,-40
-22,-32
-22,-34
-21,-34
-19,-34
-20,-29
-20,-31
-20,-34
-23,-30
-18,-32
-14,-26
-17,-26
-21,-29
-14,-32
-12,-29
-16,-27
-12,-27
-12,-28
-12,-28
-12,-30
-7,-27
-5,-24
-4,-25
-4,-23
-4,-21
-2,-16
-3,-15
1,-18
0,-9
1,-13
9,-15
9,-12
8,-11
7,-8
8,-7
14,-8
10,-6
17,-4
16,-7
14,-5
16,-9
15,-9
9,-9
7,-13
7,-17
0,-22
0,-27
-8,-31
-9,-35
-11,-38
-9,-42
-8,-43
-10,-47
-12,-44
-16,-42
-15,-43
-15,-46
-16,-40
-14,-47
-14,-48
-16,-48
-14,-46
-15,-50
-13,-42
-18,-44
-12,-45
-16,-42
-19,-38
-16,-42
-11,-44
-14,-46
-12,-45
-15,-44
-13,-48
-15,-48
-15,-47
-17,-45
-19,-45
-17,-44
-17,-46
-15,-46
-16,-50
-16,-48
-14,-45
-13,-43
-8,-45
-5,-43
-8,-44
-6,-42
0,-45
7,-42
18,-42
23,-43
21,-41
26,-37
29,-36
25,-36
21,-39
11,-45
7,-44
4,-40
-2,-44
-4,-51
-12,-51
-17,-43
-20,-46
-23,-43
-23,-46
-23,-44
-24,-40
-23,-44
-21,-45
-25,-50
-22,-46
-20,-44
-24,-43
-23,-44
-20,-44
-23,-49
-20,-49
-20,-44
-21,-44
-19,-43
-12,-47
-11,-43
-1,-46
10,-42
23,-47
37,-51
41,-45
44,-43
45,-46
42,-59
39,-73
13,-102
-37,-128
-84,-154
-121,-160
-150,-154
-164,-156
-175,-158
-163,-150
-143,-146
-107,-142
-72,-133
-41,-132
-22,-128
-17,-111
-22,-74
-19,-53
-19,-35
-19,-31
-16,-26
-17,-30
-16,-33
-16,-29
-14,-31
-15,-30
-13,-26
-12,-24
-13,-29
-10,-25
-14,-22
-10,-25
-9,-25
-9,-21
-9,-22
-10,-21
-7,-23
-14,-19
-10,-18
-5,-21
-6,-18
-7,-16
-3,-13
-5,-16
-2,-17
0,-13
4,-12
3,-16
3,-10
7,-11
6,-9
7,-9
5,-5
10,-5
13,-4
13,-2
14,-4
16,-2
14,-1
20,1
19,2
15,3
13,-2
11,-6
7,-5
3,-13
0,-14
-1,-19
-7,-20
-9,-27
-7,-31
-9,-33
-11,-29
-17,-33
-16,-34
-19,-34
-16,-36
-17,-33
-16,-36
-17,-35
-17,-34
-19,-39
-25,-37
-24,-34
-23,-34
-21,-31
-26,-34
-23,-37
-23,-32
-24,-34
-24,-37
-30,-34
-29,-30
-32,-32
-30,-31
-33,-34
-30,-31
-30,-34
-31,-31
-30,-29
-31,-26
-31,-24
-33,-32
-27,-36
-31,-31
-25,-31
-30,-33
-26,-36
-24,-32
-25,-31
-18,-27
-7,-25
-3,-22
0,-21
4,-20
3,-21
1,-24
0,-22
-6,-21
-18,-19
-21,-16
-27,-23
-36,-26
-40,-30
-40,-26
-48,-22
-46,-23
-49,-24
-51,-22
-54,-20
-49,-20
-54,-16
-53,-23
-54,-27
-54,-26
-52,-24
-56,-23
-56,-23
-58,-26
-61,-23
-58,-27
-56,-26
-61,-17
-61,-18
-57,-23
-51,-25
-36,-22
-23,-20
-7,-16
1,-16
7,-21
9,-25
3,-28
6,-36
0,-60
-35,-90
-87,-108
-124,-119
-157,-122
-183,-122
-201,-126
-208,-133
-202,-128
-180,-119
-141,-105
-103,-98
-72,-92
-59,-87
-61,-69
-61,-45
-66,-20
-62,-6
-64,0
-65,-1
-63,2
-65,-3
-61,-9
-65,-10
-64,-4
-60,5
-57,5
-59,0
-62,2
-60,-1
-58,-3
-53,-6
-54,0
-55,0
-56,2
-53,2
-54,0
-53,1
-52,0
-52,9
-52,3
-52,2
-45,9
-42,13
-42,12
-44,7
-40,7
-41,5
-42,11
-38,12
-39,14
-43,19
-35,15
-32,15
-36,21
-30,20
-36,23
-28,19
-28,26
-27,31
-31,31
-33,28
-34,14
-35,6
-38,5
-42,9
-46,12
-48,10
-56,4
-59,-6
-57,-10
-57,-9
-55,1
-59,4
-61,-9
-64,-22
-65,-18
-64,-6
-63,-3
-63,-9
-60,-9
-65,-7
-65,-11
-62,-14
-69,-8
-65,-13
-66,-14
-67,-13
-69,-13
-69,-10
-64,-11
-64,-8
-63,-4
-66,-7
-64,-9
-68,-12
-63,-13
-59,-4
-66,1
-69,-4
-76,-15
-72,-16
-68,-13
-62,-7
-60,-6
-60,-3
-60,0
-58,-10
-55,-6
-52,-6
-42,-3
-28,-5
-32,-3
-31,1
-29,4
-34,4
-36,7
-38,10
-45,10
-51,-11
-57,-21
-60,-8
-64,-1
-70,-11
-75,-14
-75,-7
-75,0
-82,1
-83,4
-81,0
-80,-11
-76,-15
-79,-8
-76,-6
-80,-8
-83,-5
-84,-3
-82,-7
-78,-3
-79,-4
-76,-8
-77,-2
-77,-5
-64,-10
-55,-12
-45,-10
-38,-8
-28,-10
-18,-4
-14,-4
-13,-4
-12,-27
-11,-41
-31,-65
-86,-88
-157,-116
-190,-116
-218,-116
-232,-125
-233,-123
-219,-113
-183,-103
-145,-98
-110,-84
-87,-77
-80,-67
-79,-42
-80,-20
-79,0
-78,5
-74,6
-74,0
-73,-3
-72,0
-74,8
-76,5
-72,9
-74,11
-72,11
-68,12
-67,9
-69,1
-70,5
-66,8
-66,13
-68,15
-66,9
-62,8
-61,12
-60,12
-58,8
-55,11
-58,9
-55,15
-56,19
-55,16
-53,13
-48,11
-48,18
-46,21
-42,24
-46,23
-45,28
-41,27
-38,31
-36,34
-36,36
-32,35
-31,28
-32,21
-32,20
-32,26
-32,29
-32,28
-40,23
-45,21
-45,14
-50,18
-60,7
-57,4
-59,3
-58,0
-62,2
-64,4
-67,-7
-70,-16
-69,-16
-69,-13
-69,-9
-71,-8
-69,-7
-71,-9
-66,-7
-67,-8
-64,-8
-70,-11
-70,-13
-72,-17
-72,-15
-72,-13
-70,-10
-71,-8
-74,-10
-71,-4
-68,-7
-67,0
-72,0
-71,-5
-70,-7
-68,-5
-67,-3
-66,-3
-64,1
-63,-6
-62,-8
-56,-2
-56,-6
-55,-4
-50,-2
-43,0
-30,4
-23,4
-26,2
-23,-1
-22,-3
-25,6
-29,3
-36,0
-40,-6
-40,-7
-51,-2
-53,-6
-59,-4
-66,-7
-71,-8
-74,-5
-76,-7
-73,-3
-70,-6
-68,-1
-72,-7
-73,-16
-73,-13
-75,-8
-74,-8
-75,-9
-74,-9
-74,-2
-73,-5
-77,-14
-72,-11
-75,-14
-65,-8
-58,-7
-54,-11
-38,-14
-28,-14
-23,-7
-12,-7
-17,-16
-13,-27
-16,-41
-22,-62
-58,-83
-111,-110
-153,-128
-182,-137
-208,-138
-216,-134
-224,-132
-215,-119
-192,-106
-152,-108
-117,-103
-91,-101
-76,-87
-71,-59
-72,-27
-75,-5
-73,8
-69,7
-73,8
-73,3
-70,0
-72,2
-69,8
-69,2
-64,4
-67,7
-63,14
-62,18
-64,18
-64,6
-64,3
-64,7
-64,11
-57,11
-57,19
-59,15
-58,11
-57,8
-54,12
-55,14
-51,19
-50,21
-46,25
-50,26
-44,20
-44,16
-38,18
-43,21
-43,30
-42,31
-41,34
-38,37
-33,34
-32,31
-31,30
-28,40
-25,45
-28,38
-30,24
-30,24
-38,29
-32,31
-37,30
-40,28
-44,17
-47,7
-59,8
-60,7
-60,4
-65,7
-63,9
-63,13
-62,0
-64,-16
-65,-11
-66,-8
-69,-8
-69,-5
-67,0
-64,3
-70,9
-66,7
-66,-12
-65,-17
-64,-10
-67,2
-68,5
-66,-6
-67,-10
-72,-8
-71,-9
-75,-7
-74,-5
-70,-1
-70,-3
-69,1
-71,5
-73,0
-69,-4
-71,-11
-71,-11
-65,-11
-63,-8
-62,-4
-62,-7
-60,-5
-58,-3
-51,-5
-42,0
-32,-6
-36,-1
-31,-4
-30,-4
-31,0
-35,3
-43,0
-52,2
-61,-5
-65,-13
-70,-19
-72,-16
-76,-15
-77,-11
-83,-12
-87,-6
-84,-10
-81,-10
-82,-16
-84,-11
-86,-13
-88,-13
-88,-16
-86,-17
-87,-17
-87,-15
-84,-16
-82,-15
-85,-18
-85,-13
-87,-17
-84,-20
-78,-26
-64,-26
-51,-21
-42,-18
-32,-17
-30,-20
-27,-23
-34,-34
-34,-50
-36,-73
-73,-103
-120,-128
-157,-138
-191,-145
-216,-143
-231,-148
-241,-141
-237,-137
-219,-127
-183,-121
-139,-116
-108,-108
-92,-95
-91,-70
-95,-43
-99,-24
-95,-13
-92,-5
-88,-5
-92,-10
-89,-15
-87,-7
-88,-10
-86,-14
-82,-13
-86,-9
-82,-7
-82,-9
-84,-7
-85,-8
-83,-7
-80,-5
-78,-10
-76,-9
-83,-5
-80,-4
-76,-2
-71,-1
-71,0
-71,-5
-69,0
-68,0
-68,-4
-68,-5
-66,2
-68,5
-67,5
-66,5
-59,2
-63,3
-56,5
-54,5
-57,9
-49,13
-54,19
-51,17
-51,14
-49,13
-54,15
-51,15
-49,13
-51,16
-57,10
-62,3
-66,0
-76,-4
-77,-8
-82,-16
-83,-24
-82,-24
-86,-22
-86,-16
-86,-22
-85,-28
-88,-28
-89,-27
-90,-26
-87,-25
-88,-25
-89,-24
-84,-28
-85,-27
-87,-29
-89,-30
-90,-27
-87,-25
-89,-21
-88,-30
-90,-31
-89,-29
-91,-30
-89,-29
-88,-32
-90,-28
-91,-26
-90,-28
-90,-28
-89,-24
-88,-25
-89,-29
-85,-35
-84,-30
-83,-23
-84,-29
-79,-28
-79,-27
-73,-27
-65,-25
-53,-25
-50,-30
-45,-27
-48,-21
-47,-15
-49,-18
-53,-26
-59,-28
-70,-26
-75,-26
-79,-28
-89,-30
-93,-33
-93,-33
-95,-29
-98,-29
-99,-22
-100,-26
-102,-34
-103,-37
-101,-39
-100,-37
-100,-36
-99,-33
-99,-34
-103,-34
-100,-39
-102,-41
-105,-42
-100,-38
-102,-34
-100,-35
-95,-36
-85,-39
-69,-32
-61,-30
-53,-35
-37,-38
-28,-38
-27,-42
-27,-52
-30,-75
-39,-99
-83,-125
-141,-150
-192,-160
-227,-168
-246,-167
-257,-169
-263,-166
-246,-158
-224,-145
-188,-138
-154,-134
-126,-126
-112,-104
-111,-86
-114,-55
-114,-40
-112,-28
-108,-25
-108,-26
-107,-24
-105,-20
-108,-24
-108,-21
-103,-23
-103,-25
-102,-24
-103,-21
-100,-16
-99,-19
-100,-16
-100,-17
-96,-16
-97,-16
-100,-14
-97,-20
-97,-19
-97,-21
-95,-20
-92,-22
-92,-18
-92,-15
-92,-14
-93,-13
-86,-9
-85,-7
-83,-9
-80,-5
-82,-3
-82,-5
-77,-7
-76,-7
-74,-6
-69,-6
-64,-3
-67,0
-67,3
-64,2
-63,3
-60,0
-62,-4
-68,-8
-71,-10
-75,-9
-78,-13
-83,-17
-85,-19
-90,-28
-92,-33
-93,-29
-94,-38
-96,-36
-98,-37
-96,-37
-100,-37
-103,-42
-102,-45
-101,-51
-101,-48
-105,-48
-104,-46
-105,-46
-109,-39
-107,-41
-107,-41
-109,-39
-108,-39
-108,-44
-106,-45
-110,-51
-109,-46
-106,-46
-110,-50
-107,-49
-107,-46
-106,-44
-106,-46
-105,-42
-102,-39
-104,-44
-99,-53
-99,-55
-95,-55
-99,-52
-96,-47
-91,-47
-89,-46
-80,-43
-69,-44
-65,-43
-64,-37
-64,-46
-63,-42
-72,-45
-78,-47
-80,-52
-85,-48
-88,-47
-90,-50
-99,-45
-100,-54
-108,-57
-110,-53
-111,-55
-114,-54
-111,-50
-108,-54
-110,-53
-111,-57
-109,-54
-113,-47
-111,-46
-109,-53
-112,-59
-107,-62
-108,-58
-110,-60
-107,-60
-106,-57
-111,-55
-106,-52
-96,-55
-81,-61
-74,-56
-64,-56
-55,-59
-55,-59
-52,-69
-59,-71
-58,-91
-69,-114
-108,-133
-155,-152
-187,-167
-218,-165
-233,-168
-238,-173
-241,-169
-228,-159
-200,-160
-165,-150
-139,-136
-123,-136
-115,-118
-114,-91
-116,-61
-112,-46
-109,-48
-110,-52
-106,-51
-105,-52
-108,-48
-107,-44
-108,-50
-104,-45
-105,-42
-102,-48
-99,-47
-104,-53
-96,-47
-98,-43
-96,-47
-96,-42
-96,-43
-95,-46
-93,-48
-90,-46
-91,-44
-88,-39
-89,-38
-90,-35
-87,-34
-84,-36
-83,-36
-78,-33
-80,-35
-81,-34
-71,-30
-72,-31
-69,-33
-70,-28
-71,-24
-65,-20
-61,-22
-61,-25
-58,-26
-58,-22
-62,-20
-60,-22
-61,-22
-61,-21
-63,-23
-65,-24
-68,-30
-72,-32
-79,-37
-81,-40
-83,-46
-83,-48
-86,-52
-90,-59
-89,-61
-91,-56
-89,-63
-85,-62
-90,-55
-88,-53
-93,-60
-92,-61
-88,-62
-87,-59
-92,-63
-91,-57
-85,-61
-85,-65
-87,-58
-89,-58
-87,-50
-85,-51
-88,-57
-92,-65
-89,-64
-88,-62
-87,-59
-89,-63
-88,-56
-85,-56
-85,-55
-80,-49
-80,-48
-77,-57
-78,-60
-72,-62
-72,-56
-69,-59
-64,-54
-59,-56
-53,-54
-43,-52
-42,-51
-44,-50
-43,-52
-41,-53
-46,-57
-54,-53
-56,-54
-62,-53
-66,-52
-69,-54
-72,-54
-76,-58
-81,-59
-83,-56
-84,-53
-86,-55
-80,-55
-81,-51
-83,-58
-84,-64
-86,-59
-86,-60
-83,-61
-80,-62
-79,-60
-80,-59
-79,-57
-79,-49
-75,-53
-82,-63
-76,-62
-68,-59
-61,-60
-47,-58
-35,-61
-27,-60
-18,-58
-21,-55
-19,-60
-24,-80
-30,-100
-54,-125
-99,-149
-136,-169
-170,-166
-194,-162
-208,-168
-213,-162
-204,-155
-186,-156
-150,-152
-113,-144
-94,-144
-80,-133
-76,-107
-78,-75
-76,-55
-76,-42
-77,-42
-72,-45
-75,-47
-74,-46
-72,-46
-71,-47
-72,-47
-70,-44
-67,-43
-69,-42
-66,-32
-63,-39
-63,-41
-62,-47
-64,-46
-58,-43
-59,-42
-59,-39
-57,-37
-54,-36
-56,-29
-52,-30
-53,-33
-48,-38
-48,-36
-48,-33
-50,-32
-45,-30
-45,-32
-43,-30
-40,-27
-41,-24
-38,-25
-37,-21
-34,-18
-34,-17
-32,-20
-30,-24
-32,-22
-31,-22
-28,-16
-32,-19
-32,-19
-31,-21
-34,-20
-37,-22
-38,-28
-40,-37
-47,-42
-49,-46
-50,-46
-53,-51
-55,-56
-57,-55
-55,-63
-54,-60
-53,-64
-57,-55
-57,-56
-57,-60
-55,-59
-59,-58
-61,-55
-53,-57
-52,-59
-53,-58
-58,-58
-55,-59
-58,-61
-61,-58
-64,-59
-60,-56
-59,-54
-59,-55
-57,-54
-58,-57
-59,-59
-55,-61
-58,-60
-62,-60
-60,-62
-57,-58
-62,-62
-59,-59
-59,-59
-55,-59
-56,-59
-51,-57
-53,-60
-49,-55
-43,-54
-30,-53
-23,-55
-15,-57
-19,-57
-16,-56
-20,-51
-20,-48
-29,-53
-36,-56
-39,-60
-43,-62
-48,-61
-52,-60
-57,-60
-58,-61
-57,-57
-60,-56
-61,-57
-63,-59
-64,-62
-64,-57
-61,-58
-64,-56
-59,-60
-60,-60
-61,-60
-64,-59
-62,-55
-64,-58
-62,-63
-62,-64
-60,-66
-57,-60
-51,-60
-42,-57
-32,-57
-21,-57
-6,-56
-6,-59
0,-58
-1,-64
-6,-74
-10,-91
-31,-117
-68,-144
-116,-168
-145,-169
-174,-167
-196,-167
-196,-168
-189,-166
-173,-158
-140,-155
-105,-143
-74,-137
-59,-129
-57,-107
-55,-82
-52,-60
-54,-44
-52,-45
-48,-47
-51,-42
-47,-40
-48,-40
-47,-37
-51,-39
-47,-37
-46,-37
-44,-37
-44,-35
-40,-32
-37,-37
-39,-37
-42,-35
-40,-30
-39,-31
-37,-30
-38,-27
-35,-30
-36,-24
-34,-27
-30,-27
-30,-26
-27,-27
-27,-20
-22,-16
-22,-24
-23,-20
-22,-22
-18,-17
-18,-16
-16,-19
-12,-17
-16,-10
-13,-10
-9,-11
-12,-10
-6,-6
-8,-10
-4,-4
-3,-9
-6,-12
-7,-10
-11,-7
-15,-9
-15,-14
-16,-22
-24,-24
-27,-31
-23,-32
-25,-32
-30,-36
-29,-41
-36,-38
-35,-43
-31,-41
-33,-43
-31,-40
-35,-41
-35,-42
-32,-48
-32,-44
-30,-41
-31,-36
-37,-32
-31,-34
-35,-39
-34,-44
-36,-42
-35,-45
-36,-42
-34,-40
-36,-39
-35,-39
-31,-35
-33,-37
-34,-38
-34,-42
-35,-43
-33,-42
-35,-41
-35,-37
-36,-33
-34,-39
-32,-40
-31,-42
-30,-37
-28,-35
-25,-34
-20,-35
-21,-32
-16,-31
-8,-39
1,-36
2,-31
4,-36
7,-33
7,-37
3,-32
0,-36
-5,-35
-8,-37
-16,-35
-18,-40
-22,-43
-32,-43
-34,-40
-33,-39
-36,-38
-35,-35
-36,-32
-35,-35
-37,-40
-34,-46
-35,-44
-42,-41
-39,-44
-41,-44
-40,-40
-41,-41
-38,-43
-40,-45
-37,-43
-40,-42
-38,-39
-34,-38
-22,-41
-14,-38
-3,-47
7,-42
15,-43
21,-40
22,-39
14,-41
12,-50
0,-84
-27,-120
-72,-146
-110,-154
-144,-156
-168,-149
-178,-152
-179,-147
-167,-147
-143,-140
-112,-131
-80,-126
-56,-122
-44,-113
-45,-88
-43,-60
-39,-36
-42,-32
-41,-30
-40,-29
-37,-25
-38,-28
-37,-27
-37,-22
-35,-22
-36,-25
-36,-18
-37,-19
-34,-23
-35,-26
-36,-24
-34,-19
-38,-21
-29,-16
-29,-15
-26,-16
-26,-15
-26,-20
-28,-18
-26,-24
-25,-20
-23,-16
-23,-14
-18,-18
-18,-11
-20,-10
-19,-10
-18,-10
-16,-8
-14,-8
-12,-6
-10,-7
-13,-4
-7,-2
-5,-2
-3,0
-4,-1
-6,0
-5,3
-4,0
-6,0
-8,4
-5,-1
-13,-12
-17,-14
-20,-19
-26,-23
-26,-25
-30,-26
-36,-30
-34,-31
-37,-37
-39,-36
-37,-45
-37,-41
-35,-37
-37,-34
-40,-35
-41,-32
-40,-34
-38,-41
-40,-40
-38,-33
-40,-38
-38,-37
-37,-43
-41,-42
-44,-38
-40,-38
-46,-41
-44,-39
-38,-38
-45,-42
-44,-42
-40,-42
-43,-46
-43,-39
-44,-42
-43,-39
-40,-40
-44,-36
-41,-39
-37,-37
-36,-35
-36,-36
-39,-36
-33,-39
-33,-40
-30,-36
-29,-34
-23,-34
-14,-34
-8,-34
-4,-32
-5,-37
-3,-37
-5,-31
-10,-35
-18,-37
-18,-38
-26,-37
-28,-43
-32,-41
-36,-39
-38,-37
-41,-38
-48,-40
-50,-39
-47,-39
-51,-38
-51,-40
-50,-40
-50,-38
-49,-39
-47,-40
-48,-37
-51,-37
-55,-37
-51,-46
-48,-42
-48,-38
-48,-40
-44,-45
-41,-40
-36,-41
-21,-41
-9,-41
-5,-40
3,-42
13,-38
11,-40
5,-47
1,-67
-11,-85
-45,-112
-93,-136
-131,-149
-163,-153
-188,-151
-195,-152
-186,-146
-168,-140
-137,-136
-104,-135
-74,-128
-55,-121
-46,-102
-46,-75
-48,-49
-45,-33
-40,-22
-41,-24
-45,-23
-42,-20
-41,-24
-39,-24
-39,-22
-39,-17
-36,-19
-36,-23
-31,-21
-29,-19
-34,-18
-26,-19
-30,-12
-29,-11
-25,-16
-29,-15
-26,-11
-24,-12
-17,-12
-17,-14
-18,-12
-15,-10
-14,-9
-18,-6
-12,-7
-8,-6
-8,-5
-2,-2
-3,-5
1,-3
-2,0
3,0
5,3
7,7
8,4
15,6
14,9
11,5
16,10
19,12
13,10
14,9
13,11
7,1
7,1
1,-7
-3,-10
-6,-11
-4,-21
-9,-21
-15,-26
-15,-23
-17,-32
-15,-27
-19,-28
-15,-32
-14,-32
-15,-31
-11,-31
-13,-36
-14,-41
-16,-35
-14,-36
-18,-35
-17,-36
-15,-35
-14,-36
-13,-37
-12,-31
-10,-36
-12,-33
-19,-32
-15,-38
-13,-35
-15,-39
-14,-40
-10,-35
-14,-38
-16,-36
-18,-39
-15,-37
-13,-33
-11,-35
-4,-34
-7,-37
-4,-32
-2,-29
-2,-36
4,-30
14,-32
21,-33
18,-30
20,-30
21,-31
19,-31
14,-30
11,-34
2,-35
-4,-34
-11,-36
-16,-38
-18,-39
-22,-33
-24,-40
-26,-41
-27,-38
-28,-36
-28,-37
-32,-40
-35,-41
-37,-40
-35,-39
-38,-38
-40,-40
-37,-39
-36,-38
-36,-32
-37,-38
-38,-40
-36,-37
-35,-42
-36,-41
-28,-40
-15,-42
-1,-43
5,-42
9,-43
7,-43
13,-47
7,-53
8,-69
-4,-88
-38,-118
-91,-146
-131,-168
-158,-170
-180,-171
-185,-174
-181,-180
-172,-177
-143,-174
-109,-165
-74,-160
-52,-152
-43,-133
-46,-104
-51,-75
-54,-49
-56,-34
-60,-32
-62,-32
-60,-31
-67,-33
-67,-35
-68,-35
-68,-32
-65,-30
-64,-23
-66,-25
-64,-19
-64,-21
-64,-21
-63,-17
-57,-16
-56,-18
-53,-17
-52,-17
-49,-14
-50,-16
-51,-17
-50,-14
-52,-9
-50,-9
-56,-6
-49,-8
-50,-3
-47,-2
-47,1
-41,-2
-46,2
-44,7
-44,7
-38,3
-39,6
-36,7
-34,7
-36,9
-31,12
-31,12
-30,13
-32,10
-41,9
-41,6
-46,4
-47,-2
-52,-3
-57,-2
-64,-10
-67,-13
-69,-16
-73,-21
-75,-26
-73,-32
-75,-32
-74,-30
-75,-35
-72,-32
-72,-35
-74,-37
-72,-31
-72,-36
-73,-31
-70,-34
-68,-32
-69,-36
-68,-38
-65,-33
-70,-36
-69,-31
-66,-34
-65,-33
-64,-35
-64,-34
-57,-31
-60,-33
-59,-34
-59,-35
-62,-35
-62,-32
-64,-30
-62,-31
-58,-32
-55,-29
-52,-28
-53,-26
-54,-30
-52,-29
-48,-29
-43,-25
-39,-24
-30,-23
-34,-19
-32,-18
-35,-21
-38,-20
-44,-18
-52,-22
-56,-20
-62,-25
-68,-26
-74,-28
-78,-30
-79,-30
-84,-33
-88,-31
-88,-23
-88,-25
-90,-26
-92,-29
-91,-29
-90,-31
-89,-30
-91,-34
-94,-31
-91,-32
-90,-28
-88,-31
-90,-32
-88,-33
-90,-32
-90,-34
-83,-35
-74,-32
-61,-35
-47,-37
-35,-33
-29,-30
-23,-36
-30,-41
-26,-45
-32,-64
-56,-88
-104,-114
-162,-143
-198,-158
-225,-164
-242,-170
-247,-172
-241,-174
-227,-174
-198,-164
-165,-156
-128,-144
-111,-140
-96,-120
-98,-90
-103,-62
-98,-37
-99,-24
-98,-22
-100,-22
-98,-21
-94,-21
-95,-21
-91,-23
-93,-23
-91,-17
-92,-17
-91,-19
-89,-21
-92,-22
-89,-26
-89,-22
-86,-22
-86,-20
-85,-20
-85,-16
-84,-18
-85,-20
-86,-19
-82,-18
-80,-21
-78,-16
-81,-16
-77,-15
-77,-12
-76,-14
-80,-10
-74,-11
-72,-6
-69,-6
-67,-10
-66,-5
-65,-5
-68,-6
-66,-7
-64,-3
-63,-2
-61,-1
-63,-3
-63,-1
-61,-1
-64,-5
-70,-7
-77,-13
-79,-17
-87,-21
-89,-23
-94,-27
-94,-36
-98,-38
-96,-43
-96,-43
-105,-43
-103,-46
-103,-48
-103,-46
-105,-43
-107,-47
-107,-50
-109,-51
-110,-50
-101,-53
-103,-46
-107,-49
-109,-48
-113,-47
-108,-46
-111,-53
-109,-54
-111,-54
-110,-54
-112,-50
-113,-53
-114,-54
-115,-54
-116,-55
-113,-53
-115,-54
-114,-57
-110,-58
-111,-59
-109,-55
-107,-56
-110,-54
-105,-59
-102,-60
-96,-55
-91,-56
-84,-58
-79,-56
-81,-57
-79,-60
-78,-58
-82,-59
-89,-54
-97,-57
-103,-55
-112,-59
-116,-64
-121,-65
-125,-62
-128,-66
-129,-67
-128,-61
-129,-63
-134,-63
-134,-63
-135,-63
-135,-70
-136,-73
-137,-69
-136,-69
-137,-70
-134,-67
-134,-65
-136,-67
-134,-66
-138,-69
-139,-73
-137,-71
-125,-71
-111,-70
-98,-71
-81,-69
-70,-70
-65,-71
-66,-74
-70,-74
-69,-84
-85,-104
-128,-128
-188,-154
-234,-172
-268,-186
-286,-185
-295,-189
-286,-194
-276,-190
-251,-183
-217,-174
-181,-171
-158,-163
-148,-150
-145,-127
-146,-100
-149,-76
-145,-66
-145,-60
-143,-64
-143,-64
-140,-66
-137,-61
-145,-62
-140,-59
-138,-61
-141,-56
-143,-58
-140,-62
-141,-61
-141,-58
-138,-56
-136,-57
-135,-58
-132,-56
-134,-61
-135,-54
-132,-52
-133,-54
-128,-56
-131,-54
-128,-57
-124,-56
-123,-53
-126,-51
-123,-46
-121,-48
-120,-49
-119,-46
-114,-49
-115,-43
-112,-46
-111,-47
-112,-46
-109,-38
-110,-38
-107,-44
-108,-39
-106,-38
-104,-42
-108,-43
-106,-41
-107,-48
-110,-48
-115,-51
-119,-55
-123,-57
-124,-60
-129,-63
-129,-67
-134,-73
-132,-75
-126,-79
-131,-76
-133,-76
-134,-80
-132,-77
-134,-79
-134,-77
-136,-80
-137,-81
-135,-76
-131,-78
-133,-79
-131,-77
-133,-76
-134,-79
-133,-77
-132,-78
-133,-82
-131,-77
-133,-79
-134,-80
-132,-80
-134,-78
-137,-78
-136,-78
-136,-79
-135,-75
-135,-78
-133,-81
-130,-79
-127,-84
-124,-82
-127,-80
-128,-83
-124,-78
-118,-76
-112,-75
-103,-79
-98,-81
-95,-79
-96,-81
-98,-79
-101,-72
-107,-79
-110,-79
-114,-83
-122,-82
-125,-83
-128,-84
-130,-87
-134,-85
-136,-90
-136,-85
-140,-83
-144,-84
-139,-86
-141,-84
-142,-89
-140,-92
-137,-90
-141,-86
-141,-88
-141,-84
-143,-87
-141,-89
-143,-89
-140,-84
-142,-90
-137,-90
-130,-93
-125,-90
-110,-91
-102,-90
-90,-89
-80,-91
-76,-90
-75,-92
-72,-99
-76,-108
-90,-128
-134,-151
-184,-171
-222,-184
-255,-187
-282,-185
-292,-187
-292,-191
-273,-191
-237,-190
-198,-183
-166,-175
-149,-172
-141,-164
-141,-140
-141,-111
-140,-90
-140,-80
-136,-80
-137,-75
-136,-78
-132,-75
-135,-78
-133,-81
-133,-79
-135,-78
-133,-78
-129,-78
-130,-77
-131,-74
-128,-74
-128,-77
-127,-70
-125,-74
-126,-74
-123,-75
-126,-74
-122,-73
-124,-72
-122,-71
-122,-70
-117,-68
-119,-68
-114,-70
-115,-67
-115,-64
-115,-64
-114,-63
-109,-60
-108,-58
-107,-61
-104,-55
-110,-55
-105,-56
-106,-57
-103,-52
-104,-54
-105,-56
-100,-52
-101,-57
-100,-56
-100,-53
-105,-62
-108,-58
-109,-69
-108,-70
-116,-72
-118,-75
-122,-82
-121,-81
-124,-83
-124,-89
-125,-88
-128,-90
-128,-90
-130,-92
-129,-90
-129,-93
-128,-94
-125,-90
-126,-87
-130,-89
-127,-90
-127,-85
-130,-91
-123,-90
-128,-88
-128,-90
-128,-88
-125,-89
-127,-91
-128,-92
-126,-88
-128,-87
-128,-88
-128,-94
-128,-89
-126,-89
-123,-88
-123,-88
-119,-92
-117,-89
-116,-89
-115,-83
-116,-82
-112,-81
-103,-87
-95,-85
-92,-85
-85,-84
-83,-85
-85,-82
-89,-82
-87,-82
-95,-84
-98,-87
-105,-91
-108,-91
-110,-89
-111,-94
-118,-93
-120,-87
-125,-94
-125,-93
-128,-92
-129,-86
-130,-89
-127,-88
-125,-92
-128,-94
-126,-90
-128,-85
-123,-87
-124,-92
-128,-86
-129,-90
-127,-89
-125,-90
-122,-88
-118,-89
-114,-93
-105,-94
-93,-93
-79,-88
-65,-88
-60,-90
-52,-88
-54,-90
-60,-99
-61,-116
-92,-141
-138,-159
-184,-177
-220,-183
-251,-185
-269,-183
-273,-183
-260,-186
-239,-186
-197,-181
-164,-180
-135,-163
-118,-160
-121,-149
-118,-122
-118,-94
-116,-80
-113,-71
-111,-72
-115,-73
-113,-73
-111,-71
-109,-70
-107,-72
-106,-69
-108,-67
-108,-66
-105,-70
-106,-66
-104,-66
-103,-64
-101,-66
-100,-66
-101,-62
-96,-61
-102,-60
-101,-60
-95,-58
-94,-58
-92,-55
-97,-55
-92,-54
-92,-54
-94,-51
-92,-51
-91,-51
-87,-48
-87,-47
-85,-50
-82,-46
-80,-43
-76,-43
-79,-42
-77,-40
-76,-40
-75,-38
-73,-39
-69,-39
-69,-40
-68,-40
-71,-40
-75,-44
-72,-45
-79,-46
-79,-52
-85,-61
-87,-58
-89,-64
-90,-63
-88,-69
-94,-68
-92,-72
-94,-70
-91,-68
-94,-71
-93,-72
-88,-72
-91,-71
-90,-72
-90,-69
-92,-66
-93,-74
-93,-70
-91,-72
-89,-68
-91,-72
-91,-70
-94,-71
-90,-68
-91,-72
-88,-69
-88,-71
-87,-67
-90,-68
-92,-69
-93,-73
-89,-70
-84,-71
-88,-72
-88,-70
-88,-71
-87,-67
-84,-67
-79,-66
-82,-69
-80,-68
-75,-74
-71,-66
-73,-67
-68,-69
-55,-68
-49,-64
-49,-64
-47,-65
-47,-64
-49,-62
-52,-68
-55,-68
-59,-65
-62,-73
-69,-68
-76,-67
-78,-71
-83,-71
-85,-70
-85,-69
-90,-67
-86,-66
-88,-69
-88,-69
-83,-74
-87,-68
-84,-67
-86,-73
-87,-66
-88,-72
-85,-71
-85,-70
-82,-70
-82,-73
-87,-71
-83,-73
-82,-70
-70,-68
-59,-71
-50,-71
-40,-73
-27,-71
-17,-65
-17,-68
-20,-74
-23,-84
-32,-102
-63,-126
-108,-152
-153,-167
-189,-179
-220,-181
-231,-180
-231,-185
-212,-181
-186,-175
-146,-172
-117,-166
-89,-161
-78,-149
-77,-126
-79,-97
-78,-71
-76,-58
-76,-55
-75,-50
-75,-52
-79,-54
-74,-58
-74,-56
-75,-55
-68,-54
-65,-49
-73,-49
-67,-51
-64,-46
-62,-45
-66,-47
-64,-51
-59,-53
-62,-46
-56,-49
-52,-45
-58,-43
-62,-44
-53,-43
-55,-43
-50,-41
-50,-39
-49,-40
-44,-37
-44,-37
-43,-33
-46,-33
-41,-31
-41,-28
-39,-25
-35,-30
-32,-27
