Var1_1,Var1_2
-61,-33
-53,-29
-49,-31
-47,-31
-47,-27
-31,-23
-79,-21
-161,-1
-117,45
229,87
543,19
647,-149
377,-253
55,-189
-51,-95
-83,-25
-89,-13
-79,-15
-79,-15
-83,-21
-77,-19
-67,-15
-71,-15
-79,-17
-71,-13
-61,-11
-65,-11
-77,-15
-79,-17
-65,-17
-63,-15
-61,-17
-57,-19
-53,-19
-55,-23
-55,-19
-51,-23
-47,-25
-47,-23
-39,-21
-29,-21
-29,-17
-31,-15
-23,-9
-11,1
-7,9
-15,11
-25,13
-21,13
-21,13
-25,13
-19,13
-9,17
-13,19
-17,15
-11,13
-5,13
-3,15
-13,15
-19,11
-15,11
-3,19
-7,13
-11,11
-3,13
1,13
-11,9
-21,9
3,19
17,41
19,45
49,53
61,59
49,35
37,25
27,15
11,9
-11,5
-37,-9
-53,-15
-53,-15
-49,-9
-45,-15
-39,-13
-65,-11
-157,7
-115,57
189,73
539,-27
669,-219
459,-267
121,-181
-29,-59
-93,-3
-99,-5
-101,-13
-93,-11
-87,-9
-81,-11
-81,-13
-85,-11
-89,-5
-89,-5
-85,-7
-85,-5
-81,-5
-77,-9
-63,-5
-55,-5
-59,-3
-57,-7
-51,-9
-49,-7
-53,-5
-57,-7
-55,-13
-57,-7
-53,-7
-45,-7
-33,3
-19,7
-17,11
-13,9
-15,9
-17,5
-25,9
-31,5
-31,1
-31,-3
-31,-1
-29,-1
-29,-3
-25,-1
-21,1
-17,-1
-19,-5
-11,1
-11,3
-13,-1
-17,-1
-19,-1
-19,-1
-11,-3
-13,-1
-19,1
-3,13
-1,31
-1,35
25,37
49,49
47,21
31,15
19,5
5,-1
-23,-7
-47,-23
-41,-29
-41,-25
-39,-27
-47,-29
-43,-31
-31,-23
-137,-11
-167,19
29,77
451,31
633,-137
565,-245
177,-211
-13,-93
-75,-23
-83,-15
-83,-19
-81,-19
-77,-21
-77,-23
-77,-17
-71,-19
-67,-17
-67,-19
-71,-19
-73,-17
-71,-17
-67,-21
-61,-19
-65,-19
-65,-21
-61,-23
-55,-23
-53,-21
-53,-23
-51,-25
-45,-27
-43,-23
-43,-21
-37,-19
-31,-17
-19,-7
-3,-7
-3,-3
-15,1
-15,5
-23,-1
-25,-5
-21,-7
-19,-9
-11,-5
-13,-11
-9,-11
-15,-13
-19,-11
-11,-13
-3,-13
-5,-9
-5,-15
-3,-13
-3,-11
-11,-13
-11,-11
-5,-15
-11,-11
-23,-13
-3,-9
11,7
7,19
25,25
45,35
37,15
31,5
19,-7
1,-11
-29,-19
-39,-29
-35,-33
-37,-33
-45,-35
-45,-31
-43,-31
-27,-33
-119,-21
-171,13
43,71
467,33
639,-129
581,-255
209,-219
3,-117
-63,-41
-77,-21
-71,-25
-71,-23
-65,-25
-63,-23
-69,-21
-63,-23
-55,-19
-59,-15
-63,-21
-51,-29
-57,-17
-49,-19
-37,-23
-51,-27
-57,-25
-49,-25
-45,-21
-47,-23
-47,-31
-47,-29
-33,-29
-37,-27
-43,-29
-27,-21
-15,-17
-5,-19
-21,-11
-9,-3
-7,1
-11,-1
9,1
3,-1
-5,3
-13,-7
-9,-1
-11,-1
-5,-5
-3,-5
5,-7
9,-3
15,-7
15,-7
17,-9
9,-5
15,-3
3,-7
5,-11
5,-7
9,-7
1,-9
3,-3
29,13
37,29
25,37
49,35
61,25
55,17
29,9
17,-1
-9,-9
-31,-15
-39,-31
-35,-35
-37,-31
-31,-31
-17,-29
-27,-31
-79,-23
-165,15
-97,69
265,35
581,-107
673,-285
557,-307
185,-201
3,-75
-61,-13
-65,-7
-59,-13
-61,-21
-69,-15
-73,-13
-79,-13
-69,-13
-51,-11
-51,-15
-67,-15
-61,-11
-53,-11
-55,-9
-61,-9
-57,-17
-57,-15
-57,-7
-49,-15
-43,-15
-37,-9
-33,-13
-35,-15
-53,-13
-59,-11
-47,-7
-39,-3
-23,-3
-7,9
1,5
-5,5
-17,-1
-21,-5
-27,-1
-19,-7
-7,-1
-11,-3
-19,-9
-13,-5
-3,-5
1,-3
1,-7
3,-7
-3,-7
-1,-5
-3,-7
7,-9
13,-5
7,-7
-11,-11
-5,-11
3,-11
5,-5
27,11
35,21
41,25
59,31
71,29
59,7
49,-1
45,-1
29,-11
-23,-27
-35,-37
-31,-35
-25,-37
-21,-33
-17,-29
-5,-27
-67,-21
-161,11
-67,77
307,53
571,-97
647,-259
379,-251
97,-145
-17,-45
-47,-11
-67,-13
-67,-17
-53,-17
-45,-19
-45,-15
-49,-11
-51,-9
-51,-11
-57,-11
-49,-9
-51,-15
-53,-25
-55,-23
-51,-19
-49,-13
-55,-15
-55,-17
-55,-15
-55,-11
-55,-25
-51,-27
-57,-23
-61,-23
-65,-21
-59,-21
-43,-11
-27,-5
-27,-3
-33,-5
-29,-5
-33,-3
-37,-5
-37,-9
-31,-7
-23,-5
-29,-13
-31,-7
-27,-11
-25,-9
-19,3
-9,-3
-3,-7
-3,-5
1,-9
5,-7
9,-3
13,-11
9,-11
5,-5
3,-9
1,-13
-19,-13
-9,-13
19,11
25,13
31,17
59,31
61,17
55,3
47,1
31,-1
5,-17
-23,-33
-35,-41
-37,-39
-31,-21
-23,-43
-31,-43
-27,-35
-87,-23
-171,7
-85,73
245,31
565,-109
675,-283
487,-293
143,-185
-15,-65
-67,-15
-81,-17
-85,-21
-81,-15
-77,-17
-71,-17
-65,-17
-71,-19
-79,-19
-79,-19
-81,-15
-71,-13
-69,-15
-71,-15
-67,-13
-65,-15
-57,-15
-55,-17
-59,-9
-59,-5
-61,-5
-59,-9
-55,-13
-53,-13
-47,-13
-45,-11
-33,-9
-21,-5
-15,1
-13,1
-15,1
-15,1
-19,1
-21,-3
-25,-5
-23,-7
-17,-7
-11,-9
-15,-7
-19,-9
-17,-11
-13,-7
-13,-9
-11,-5
-7,-9
-3,-9
-3,-7
-3,-7
-13,-9
-15,-11
-19,-9
-19,-9
-23,-13
-21,-15
-23,-11
-25,-11
-17,-9
-3,5
5,17
1,25
29,29
33,13
31,5
17,-9
-5,-17
-23,-21
-53,-29
-63,-37
-57,-31
-49,-29
-39,-29
-49,-37
-45,-37
-131,-21
-171,23
11,73
413,17
623,-171
509,-265
181,-213
-9,-113
-75,-35
-89,-17
-87,-23
-85,-27
-81,-25
-81,-27
-75,-21
-75,-19
-71,-21
-77,-21
-73,-15
-69,-15
-71,-9
-71,-19
-65,-19
-61,-21
-55,-21
-59,-21
-59,-21
-55,-21
-53,-23
-49,-23
-49,-23
-45,-25
-45,-23
-41,-23
-31,-15
-27,-19
-15,-7
-7,-1
-1,9
-5,11
-9,9
-17,7
-19,9
-25,5
-27,3
-21,1
-17,5
-13,1
-11,1
-11,1
-5,1
-11,-1
-13,-7
-9,-3
-7,1
-7,-1
-9,-1
-13,-7
-11,-5
-15,-7
-19,-11
-25,-11
-23,-11
-27,-13
-27,-11
-25,-13
-19,-11
-3,-7
13,15
17,25
29,29
35,29
35,5
15,-7
5,-19
-3,-13
-31,-29
-47,-33
-43,-31
-31,-29
-33,-31
-33,-29
-23,-29
-91,-21
-139,15
-29,81
321,77
581,-51
609,-209
281,-207
53,-133
-35,-51
-63,-19
-77,-21
-67,-19
-67,-21
-69,-21
-67,-21
-59,-19
-59,-17
-57,-21
-57,-19
-61,-17
-57,-19
-53,-21
-55,-21
-51,-23
-53,-23
-47,-25
-47,-27
-43,-27
-41,-33
-41,-35
-41,-33
-35,-35
-33,-35
-41,-37
-33,-31
-17,-23
-3,-17
1,-13
-1,-9
-1,-1
-3,-1
-9,-1
-19,-5
-21,1
-15,1
-13,-3
-13,-3
-9,1
-5,-1
-9,-3
-5,-5
-3,-1
1,-3
-5,-7
-7,-9
-9,-5
-11,-5
-11,-9
-19,-9
-15,-5
-11,-7
-15,-9
-21,-7
-21,-7
-25,-11
-27,-11
-21,-9
-7,5
7,19
7,19
21,25
27,19
31,1
3,-15
1,-15
-11,-13
-33,-23
-45,-29
-41,-27
-37,-25
-33,-25
-35,-25
-23,-21
-111,3
-129,49
45,89
433,41
633,-117
567,-245
175,-203
1,-111
-57,-29
-67,-11
-69,-17
-75,-19
-71,-17
-65,-15
-61,-21
-53,-19
-49,-13
-51,-13
-61,-17
-67,-19
-63,-19
-57,-21
-49,-23
-43,-25
-43,-25
-41,-27
-43,-29
-37,-29
-39,-29
-33,-31
-31,-33
-27,-33
-21,-33
-19,-39
-13,-35
-7,-21
-5,-5
-3,-1
-1,-1
-1,-3
-1,-7
-5,-7
-7,-11
-11,-11
-1,-11
3,-7
-3,-21
-9,-37
-17,-31
-5,-23
5,-27
11,-29
9,-25
3,-25
5,-25
11,-19
9,-11
7,-19
5,-23
-3,-19
-1,-13
-3,-13
-9,-13
-11,-7
-13,-3
11,19
13,25
17,29
43,35
49,19
47,13
37,1
27,5
-1,-3
-25,-23
-41,-37
-41,-35
-49,-31
-47,-33
-47,-31
-29,-27
-89,-11
-169,29
-53,77
325,-11
595,-203
691,-315
371,-257
57,-105
-61,-17
-103,1
-103,1
-85,1
-71,1
-69,17
-61,29
-75,25
-75,21
-77,3
-75,-1
-73,1
-73,-1
-75,3
-71,5
-73,11
-67,17
-65,19
-63,21
-69,23
-67,21
-53,21
-35,23
-25,23
-23,21
-17,23
-27,29
-27,33
-25,33
-23,31
-29,27
-33,23
-35,17
-37,7
-21,3
-27,5
-35,9
-29,7
-25,1
-21,3
-15,1
-13,-1
-29,-5
-29,-7
-27,-7
-25,-9
-25,-9
-21,-11
-13,-13
-27,-19
-35,-19
-31,-17
-29,-19
-29,-19
-23,-19
-7,-11
9,11
1,21
19,29
49,39
53,11
49,-3
43,-11
27,-17
5,-27
-17,-37
-39,-43
-41,-37
-35,-33
-27,-35
-27,-37
-15,-35
-113,-15
-155,27
53,65
465,-13
643,-209
611,-267
225,-207
27,-85
-63,-15
-83,-13
-89,-19
-79,-19
-81,-23
-79,-21
-79,-17
-79,-13
-79,-13
-79,-9
-79,-5
-85,-7
-79,-11
-77,-9
-73,-9
-75,-5
-73,-3
-67,-1
-73,7
-75,13
-83,15
-85,17
-81,15
-75,9
-63,7
-55,1
-45,7
-31,11
-19,11
-21,7
-15,7
-15,11
-19,13
-25,15
-19,13
-17,11
-21,7
-21,7
-17,1
-3,5
-1,1
-5,-1
-5,-1
1,3
-1,3
-7,3
-7,7
-7,15
-11,15
-13,13
-11,15
-9,15
-13,13
-21,7
-37,5
-21,7
9,21
23,39
17,47
21,51
41,53
37,17
29,11
19,5
11,13
-7,1
-33,-11
-45,-19
-41,-21
-37,-23
-41,-25
-35,-21
-35,-17
-135,-1
-157,43
39,89
467,45
647,-147
531,-255
153,-191
-29,-95
-91,-25
-93,-17
-93,-19
-75,-19
-61,-19
-73,-21
-75,-21
-77,-17
-79,-19
-71,-17
-65,-15
-59,-15
-63,-19
-73,-21
-63,-19
-63,-25
-59,-27
-69,-27
-55,-27
-51,-31
-47,-29
-45,-29
-45,-29
-43,-37
-43,-39
-39,-33
-29,-27
-27,-23
-15,-9
-5,-3
-9,1
-13,3
-19,3
-19,5
-23,7
-37,1
-37,5
-21,1
-19,3
-15,3
-17,3
-13,5
-15,7
-17,5
-19,5
-15,3
-15,13
-11,5
-15,1
-15,3
-17,7
-25,3
-25,1
-19,1
-17,7
-1,23
7,31
15,37
37,45
35,31
29,21
27,9
5,5
-17,-3
-45,-15
-53,-23
-51,-25
-55,-21
-43,-23
-37,-21
-33,-17
-107,-7
-189,31
-27,85
387,7
621,-187
665,-295
311,-245
47,-105
-63,-21
-89,-7
-93,-15
-91,-13
-89,-13
-93,-17
-99,-13
-91,-9
-95,-11
-95,-15
-89,-11
-87,-11
-91,-13
-85,-9
-87,-11
-93,-13
-85,-17
-81,-17
-83,-17
-81,-17
-79,-17
-81,-15
-81,-17
-87,-13
-77,-9
-73,-7
-63,-5
-53,-3
-47,1
-51,-1
-45,1
-47,3
-59,-1
-63,-3
-65,-5
-59,-5
-59,-7
-55,-5
-55,-5
-57,-1
-55,-5
-59,-7
-57,-7
-49,-5
-55,-5
-53,-7
-47,-7
-43,-3
-45,-7
-55,-9
-59,-9
-61,-9
-63,-13
-63,-13
-65,-7
-43,9
-41,21
-41,23
-11,31
-3,33
-9,11
-13,3
-21,-5
-43,-11
-73,-25
-87,-37
-95,-35
-91,-35
-85,-35
-85,-35
-77,-37
-85,-33
-191,-7
-183,45
79,59
475,-31
643,-215
527,-265
169,-201
-29,-79
-107,-23
-123,-19
-123,-23
-123,-23
-131,-25
-119,-23
-113,-21
-111,-19
-111,-19
-109,-21
-111,-19
-101,-19
-111,-17
-107,-17
-99,-19
-99,-17
-99,-17
-93,-17
-91,-19
-91,-19
-87,-21
-83,-21
-77,-23
-75,-23
-75,-19
-69,-19
-61,-13
-55,-5
-41,-3
-47,-1
-35,1
-39,3
-49,3
-55,-3
-59,-5
-59,-1
-57,-5
-57,-5
-59,-7
-49,-7
-47,-3
-47,-7
-53,-7
-51,-7
-45,-5
-41,-7
-41,-9
-43,-9
-47,-11
-49,-11
-35,-13
-43,-13
-61,-15
-49,-13
-25,-1
-17,15
-15,21
7,25
19,27
25,11
11,-1
-5,-11
-29,-15
-61,-27
-79,-41
-73,-41
-73,-39
-63,-33
-57,-33
-53,-33
-59,-31
-167,-11
-185,41
57,67
469,-9
665,-199
519,-253
167,-191
-11,-85
-87,-19
-103,-21
-101,-25
-103,-27
-95,-25
-93,-23
-91,-21
-87,-25
-87,-23
-83,-25
-85,-23
-83,-25
-83,-21
-75,-23
-71,-21
-67,-23
-77,-25
-63,-25
-65,-27
-63,-27
-59,-29
-59,-31
-53,-31
-53,-29
-43,-29
-39,-25
-35,-25
-25,-17
-13,-7
-15,-5
-21,-3
-19,1
-21,-1
-33,-3
-33,-5
-33,-5
-25,-1
-27,-5
-21,-5
-23,-7
-19,-5
-25,-5
-23,-5
-19,-5
-17,1
-19,-1
-21,-3
-21,-3
-21,-3
-25,-1
-33,-7
-33,-7
-35,-3
-25,-1
-11,15
-7,33
9,37
31,35
29,13
9,7
5,-3
3,-15
-23,-19
-55,-31
-61,-35
-61,-33
-59,-35
-55,-37
-51,-31
-43,-35
-145,-21
-169,23
-3,77
393,65
619,-89
511,-215
149,-193
-29,-115
-91,-41
-105,-23
-103,-25
-95,-31
-91,-27
-93,-25
-95,-23
-83,-27
-89,-27
-87,-23
-81,-27
-85,-19
-85,-21
-91,-19
-81,-23
-67,-23
-71,-25
-69,-27
-69,-25
-71,-27
-63,-35
-65,-33
-63,-33
-75,-31
-59,-33
-43,-33
-37,-29
-33,-25
-29,-15
-29,-7
-23,-1
-29,3
-35,3
-35,5
-41,5
-45,3
-37,5
-51,3
-41,5
-43,7
-23,7
-13,7
-21,9
-27,11
-29,5
-31,3
-29,7
-33,9
-29,9
-31,13
-9,31
-5,41
-13,45
13,47
25,43
23,23
15,19
3,13
-11,11
-39,3
-53,-7
-53,-7
-47,-5
-45,-7
-45,-9
-33,-7
-91,3
-171,27
-97,79
237,91
573,13
639,-149
263,-187
17,-129
-49,-43
-69,-11
-69,-15
-71,-15
-71,-13
-67,-15
-71,-19
-59,-13
-59,-11
-59,-11
-59,-11
-67,-11
-53,-7
-49,-9
-51,-11
-49,-11
-45,-11
-45,-13
-41,-13
-39,-13
-43,-13
-37,-13
-45,-15
-35,-13
-29,-11
-29,-11
-23,-5
-17,1
-7,11
-5,17
-7,19
-11,19
-19,23
-13,21
-19,17
-25,17
-15,17
-9,15
-11,13
-7,9
-7,15
-11,9
-7,7
-1,9
1,5
-5,1
-7,-1
-9,-1
-5,-1
-3,-1
15,1
23,21
15,29
35,33
49,37
53,17
41,13
25,-1
11,-11
-7,-11
-37,-21
-45,-33
-47,-35
-39,-29
-39,-29
-35,-33
-31,-29
-117,-17
-169,19
-27,75
373,-3
627,-183
697,-295
367,-259
81,-123
-43,-29
-79,-9
-83,-17
-87,-25
-79,-21
-79,-19
-73,-17
-71,-19
-73,-13
-69,-9
-65,-11
-67,-11
-67,-7
-69,-5
-61,-13
-59,-15
-59,-11
-57,-7
-53,-9
-51,-11
-49,-9
-49,-5
-49,-9
-43,-7
-39,-3
-35,3
-27,3
-21,3
-9,9
-1,9
-5,9
-7,5
-11,1
-11,3
-25,1
-25,-3
-27,-5
-23,-5
-23,-3
-23,-7
-15,-7
-13,-3
-11,-3
-11,-3
-5,-5
-13,-3
-9,-7
-11,-3
-11,-7
-13,-5
-19,-5
-7,1
17,23
17,33
27,37
45,41
47,15
35,5
19,-5
11,-13
-19,-19
-39,-27
-51,-33
-55,-37
-47,-33
-37,-37
-39,-35
-37,-33
-139,-15
-165,27
67,53
485,-27
669,-215
549,-261
185,-189
7,-83
-67,-23
-89,-19
-87,-23
-85,-29
-77,-23
-75,-23
-75,-23
-79,-25
-73,-21
-71,-21
-67,-21
-67,-21
-67,-21
-61,-15
-63,-21
-59,-25
-57,-23
-59,-21
-39,-23
-43,-27
-49,-29
-37,-27
-39,-29
-35,-31
-29,-25
-25,-23
-15,-17
-11,-11
1,-9
-9,-3
-7,-1
-13,-7
-19,-7
-21,-7
-23,-11
-23,-13
-23,-13
-25,-9
-29,-13
-27,-13
-23,-13
-15,-11
-13,-11
-17,-13
-17,-11
-7,-9
-11,-15
-13,-11
-15,-13
-15,-11
-25,-11
-5,-1
3,17
-1,25
25,31
39,29
29,3
19,-1
5,-15
-9,-15
-33,-25
-45,-29
-45,-35
-51,-35
-53,-37
-49,-33
-45,-31
-39,-35
-129,-21
-177,13
-41,71
331,45
585,-83
579,-221
235,-209
21,-129
-61,-43
-91,-25
-91,-27
-95,-29
-91,-29
-89,-29
-87,-25
-81,-29
-83,-29
-79,-27
-75,-27
-79,-33
-75,-31
-77,-29
-71,-35
-67,-37
-67,-39
-65,-37
-59,-41
-57,-45
-57,-47
-57,-47
-51,-49
-53,-53
-47,-45
-41,-43
-35,-41
-23,-35
-15,-27
-17,-19
-23,-17
-25,-19
-35,-19
-37,-17
-39,-21
-39,-23
-35,-23
-35,-23
-33,-23
-33,-23
-31,-21
-31,-23
-33,-21
-29,-21
-21,-21
-27,-15
-29,-19
-33,-17
-41,-21
-35,-17
-37,-17
-39,-19
-23,-11
-23,9
-19,15
-3,15
11,21
17,-1
7,-9
-7,-19
-19,-19
-41,-25
-63,-35
-63,-39
-63,-39
-55,-37
-57,-39
-47,-37
-59,-31
-167,-11
-137,39
113,65
491,29
665,-125
425,-229
67,-179
-47,-107
-79,-43
-89,-29
-89,-35
-87,-35
-77,-33
-79,-35
-69,-37
-69,-35
-73,-35
-67,-35
-61,-37
-53,-33
-55,-29
-51,-35
-51,-35
-47,-37
-47,-37
-47,-39
-49,-43
-49,-45
-33,-47
-33,-47
-39,-51
-37,-49
-37,-47
-29,-49
-21,-45
-11,-33
-7,-25
-11,-19
-15,-15
-13,-13
-9,-7
-19,-13
-23,-13
-19,-11
-13,-11
-13,-15
-9,-13
-7,-7
-5,-1
-3,-3
-1,-9
1,-11
-7,-11
3,-11
1,-13
3,-13
9,-11
17,3
23,13
27,21
55,29
59,17
53,-7
37,-9
33,-15
25,-17
1,-27
-23,-35
-29,-35
-27,-37
-27,-39
-19,-39
-13,-37
-33,-33
-141,-5
-139,41
115,57
513,-23
685,-195
573,-279
171,-201
3,-85
-55,-21
-67,-15
-61,-17
-55,-17
-55,-21
-57,-19
-51,-17
-51,-15
-51,-17
-49,-15
-57,-13
-49,-13
-45,-17
-41,-15
-37,-11
-37,-13
-41,-17
-37,-19
-33,-15
-35,-17
-35,-21
-33,-23
-27,-17
-21,-19
-21,-17
-17,-13
-9,-5
-1,-1
3,3
7,7
3,11
-7,9
-9,7
-9,5
-7,5
-9,1
-7,1
-1,1
1,3
1,5
3,5
5,5
7,7
5,5
5,5
9,3
7,5
5,5
1,5
5,9
23,21
31,33
33,41
63,47
65,45
55,21
43,15
31,7
19,5
-9,-7
-31,-17
-31,-21
-27,-17
-25,-17
-23,-19
-11,-17
-59,-9
-159,23
-89,75
231,33
579,-103
711,-257
491,-257
137,-141
-7,-39
-67,-1
-75,-5
-73,-9
-69,-7
-71,-11
-65,-11
-59,-9
-57,-5
-55,-7
-59,-7
-53,-5
-45,-5
-49,-7
-49,-7
-49,-7
-45,-7
-43,-5
-41,-7
-35,-5
-29,-7
-23,-5
-25,-9
-23,-5
-21,-1
-15,-1
-9,1
-1,5
5,21
5,19
5,17
1,15
-3,17
-5,13
-7,11
-7,9
-1,11
-1,9
-7,7
-5,5
-1,9
1,9
1,5
9,9
5,11
3,5
5,7
9,11
5,7
1,9
-1,1
-1,1
-1,7
-1,5
11,5
23,25
27,37
49,43
63,55
65,31
51,21
39,11
21,5
-7,-5
-23,-13
-23,-17
-25,-17
-21,-19
-17,-19
-15,-21
-21,-23
-117,-1
-137,39
81,77
477,-5
649,-185
611,-267
239,-225
43,-101
-39,-19
-61,-1
-63,-9
-57,-13
-57,-13
-57,-9
-61,-9
-57,-9
-51,-7
-53,-3
-47,-5
-41,-5
-43,-5
-49,-1
-47,-3
-51,-1
-43,-3
-39,-3
-33,1
-31,-5
-33,-1
-21,1
-17,1
-19,3
-15,7
-9,5
-3,13
-1,17
3,21
7,21
5,21
-3,17
-11,13
-13,17
-11,9
-15,9
-13,7
-11,11
-11,5
-11,3
-13,5
-9,7
-5,5
3,5
-1,9
-5,7
-5,7
-9,5
-9,5
-5,5
-5,7
-3,1
-7,3
-9,3
-7,3
-13,-1
-9,3
11,15
17,29
29,37
51,41
55,43
51,25
41,15
31,7
9,3
-17,-11
-25,-19
-29,-17
-27,-17
-29,-19
-29,-17
-21,-19
-33,-13
-133,7
-117,47
119,77
493,-5
647,-179
521,-245
181,-189
13,-71
-55,-9
-71,-3
-71,-5
-63,1
-61,-1
-63,-11
-63,-5
-59,-3
-57,1
-59,1
-55,-1
-51,5
-53,1
-53,1
-51,1
-49,1
-51,1
-49,-1
-43,1
-41,7
-39,3
-43,-1
-39,3
-33,3
-35,5
-27,5
-19,5
-15,13
-11,19
-7,21
-11,21
-21,21
-23,17
-23,9
-21,11
-21,13
-23,13
-27,7
-25,7
-21,13
-21,9
-27,7
-23,7
-17,9
-17,7
-19,7
-17,7
-19,9
-27,3
-33,1
-29,-1
-23,1
-23,1
-29,-3
-31,-5
-33,-1
-35,-5
-35,-3
-27,-3
-9,11
-1,23
3,33
29,37
29,29
17,19
3,3
-7,-1
-31,-3
-55,-17
-61,-23
-57,-19
-59,-17
-61,-19
-53,-19
-47,-21
-97,-13
-171,19
-85,75
269,47
565,-89
607,-247
281,-241
41,-137
-51,-37
-89,-5
-97,-9
-95,-13
-93,-11
-95,-15
-93,-15
-87,-15
-91,-15
-87,-13
-93,-15
-91,-17
-87,-13
-87,-15
-81,-17
-77,-19
-77,-15
-83,-17
-77,-21
-69,-23
-65,-21
-63,-21
-55,-25
-51,-23
-53,-21
-43,-21
-43,-21
-35,-21
-25,-11
-21,-5
-19,-3
-17,-7
-25,-5
-25,1
-31,3
-35,-1
-35,1
-37,-1
-31,-3
-25,-1
-23,-1
-27,-1
-31,-5
-27,-5
-27,-1
-27,-5
-27,3
-21,13
-23,11
-23,7
-23,5
-27,3
-29,1
-29,-3
-29,-5
-29,-7
-31,-7
-29,-5
-31,-7
-15,-5
3,19
7,29
25,31
39,39
35,23
21,9
7,-3
-1,-5
-25,-9
-41,-23
-39,-27
-37,-23
-35,-21
-29,-17
-21,-25
-31,-21
-117,-5
-95,45
121,79
483,37
637,-135
397,-227
99,-175
-11,-75
-51,-13
-61,-9
-59,-13
-53,-17
-55,-17
-53,-17
-51,-17
-51,-15
-49,-13
-45,-11
-45,-11
-49,-11
-45,-13
-47,-13
-43,-13
-39,-13
-37,-13
-33,-13
-27,-15
-25,-19
-21,-19
-23,-25
-19,-23
-13,-23
-13,-21
-15,-21
-7,-21
3,-13
13,-7
15,1
11,3
7,5
3,7
-3,9
-7,3
-3,3
-3,7
-5,1
-1,-1
1,1
3,1
3,1
9,1
5,-1
1,-1
-1,-3
-3,-3
-7,-5
-9,-5
-5,-5
-7,-9
-9,-7
-15,-5
-19,-7
-19,-7
-3,5
5,21
5,27
29,29
29,29
29,9
13,3
3,-5
-11,-1
-33,-9
-51,-15
-51,-19
-49,-13
-45,-13
-53,-15
-43,-13
-53,-11
-147,9
-143,49
39,97
439,65
645,-91
481,-229
131,-191
-17,-107
-77,-23
-93,-1
-89,-7
-85,-9
-93,-5
-95,-7
-91,-9
-89,-7
-85,-1
-87,-1
-87,-3
-85,-5
-79,1
-77,-1
-77,-3
-75,-5
-77,-5
-73,-9
-73,-11
-73,-21
-69,-21
-69,-25
-71,-27
-63,-29
-59,-21
-57,-23
-57,-25
-55,-15
-41,-5
-43,3
-49,5
-51,11
-59,11
-61,11
-57,5
-57,7
-59,7
-61,5
-55,5
-53,7
-51,9
-53,7
-51,3
-49,5
-49,5
-47,1
-49,-1
-57,-1
-51,1
-59,-1
-61,-5
-59,-1
-63,3
-63,1
-39,11
-37,27
-37,37
-17,39
-1,43
-1,21
-13,15
-21,5
-45,-3
-79,-15
-95,-23
-93,-25
-91,-25
-87,-23
-85,-23
-77,-25
-97,-23
-189,7
-175,51
35,67
421,-11
623,-193
525,-267
175,-229
-13,-121
-87,-39
-117,-13
-117,-21
-117,-23
-115,-25
-119,-23
-119,-25
-113,-21
-113,-25
-109,-23
-105,-21
-105,-21
-103,-23
-95,-23
-93,-21
-93,-23
-91,-23
-89,-27
-87,-29
-83,-29
-83,-31
-75,-33
-69,-37
-65,-43
-59,-43
-55,-41
-51,-37
-45,-33
-33,-35
-35,-27
-37,-21
-37,-21
-51,-25
-53,-23
-55,-27
-55,-29
-53,-27
-49,-27
-51,-29
-45,-29
-47,-29
-45,-27
-49,-31
-41,-33
-39,-31
-39,-31
-45,-35
-49,-37
-47,-35
-47,-33
-45,-37
-53,-39
-55,-39
-47,-31
-29,-17
-33,-7
-23,1
9,11
9,-13
-7,-23
-13,-33
-19,-33
-41,-41
-73,-57
-83,-65
-77,-65
-77,-65
-77,-65
-71,-65
-57,-59
-127,-51
-187,-19
-75,37
265,5
553,-115
623,-267
315,-259
43,-179
-61,-85
-95,-49
-105,-47
-101,-47
-101,-49
-93,-49
-97,-47
-91,-43
-91,-45
-93,-45
-91,-43
-87,-39
-85,-39
-85,-41
-79,-41
-69,-37
-67,-39
-67,-41
-61,-41
-55,-41
-57,-41
-59,-45
-55,-43
-47,-41
-43,-41
-45,-39
-35,-31
-27,-25
-25,-21
-15,-15
-17,-11
-23,-7
-35,-11
-37,-13
-33,-13
-37,-13
-37,-19
-35,-19
-29,-17
-27,-15
-29,-17
-31,-19
-31,-19
-27,-19
-23,-19
-25,-23
-21,-21
-25,-23
-29,-21
-29,-21
-33,-21
-31,-17
-33,-21
-19,-19
-9,-1
-13,9
-11,15
23,21
29,-1
19,-5
5,-15
-7,-23
-25,-27
-53,-37
-59,-43
-59,-45
-61,-43
-55,-41
-55,-39
-45,-43
-99,-35
-183,-3
-113,53
201,49
541,-29
657,-209
361,-243
63,-175
-47,-87
-87,-33
-87,-33
-87,-37
-89,-35
-75,-33
-73,-35
-75,-37
-73,-33
-67,-29
-63,-29
-67,-33
-67,-31
-61,-31
-59,-33
-53,-37
-53,-35
-45,-35
-43,-39
-43,-39
-45,-41
-37,-39
-29,-43
-33,-45
-27,-41
-23,-35
-23,-33
-11,-29
-11,-17
-5,-9
-7,-7
-13,-7
-15,-7
-17,-5
-21,-7
-27,-9
-31,-11
-29,-9
-23,-9
-19,-9
-21,-9
-19,-11
-17,-13
-17,-15
-15,-11
-19,-11
-13,-15
-13,-15
-13,-13
-19,-13
-17,-17
-25,-11
-19,-9
1,5
3,17
7,21
25,27
35,21
29,1
13,-5
7,-15
-11,-17
-39,-31
-57,-39
-53,-41
-53,-39
-49,-37
-49,-39
-47,-39
-53,-35
-153,-11
-139,41
79,41
455,-33
645,-217
495,-263
157,-197
-7,-83
-69,-27
-87,-25
-93,-27
-95,-29
-93,-29
-87,-25
-87,-25
-83,-23
-83,-23
-79,-21
-83,-23
-79,-19
-79,-19
-73,-21
-73,-21
-69,-21
-67,-19
-61,-23
-55,-23
-57,-25
-95,-29
-79,-23
-59,-21
-35,-19
-25,-23
-29,-23
-29,-19
-25,-9
-23,-7
-27,-5
-33,-1
-41,-1
-41,-7
-53,-7
-45,-11
-49,-9
-43,-11
-49,-15
-45,-13
-37,-7
-35,-11
-35,-13
-33,-13
-35,-13
-43,-15
-93,-19
-113,-15
-133,-17
-11,-13
15,-19
-29,-17
-13,-15
-29,-21
-27,-19
-13,3
-19,13
-15,15
17,23
21,1
13,-7
-1,-15
-11,-23
-29,-27
-55,-37
-67,-45
-65,-47
-69,-49
-63,-47
-75,-45
-75,-49
-87,-41
-269,-9
-109,49
249,31
571,-67
649,-229
333,-233
51,-157
-63,-65
-95,-31
-105,-33
-101,-37
-97,-37
-97,-33
-97,-37
-99,-37
-89,-31
-95,-27
-87,-29
-79,-31
-67,-31
-81,-29
-77,-33
-73,-33
-65,-37
-81,-33
-61,-35
-63,-41
-51,-43
-41,-43
-41,-43
-41,-43
-35,-41
-33,-41
-23,-37
-19,-35
-13,-29
-19,-15
-23,-11
-23,-9
-29,-7
-27,-5
-31,-3
-39,-7
-43,-9
-43,-9
-39,-7
-33,-7
-37,-9
-27,-7
-33,-7
-33,-9
-35,-11
-33,-7
-29,-11
-27,-11
-33,-11
-35,-7
-31,-9
-41,-11
-39,-13
-27,-1
-15,13
-11,25
-5,29
23,41
21,5
7,1
-15,-13
-15,-11
-43,-21
-61,-31
-67,-33
-67,-33
-63,-29
-61,-29
-59,-25
-61,-25
-161,-11
-175,31
29,73
421,55
633,-111
459,-195
127,-167
-23,-83
-85,-27
-103,-19
-113,-19
-101,-19
-95,-21
-99,-21
-91,-21
-93,-19
-93,-19
-95,-17
-85,-17
-83,-17
-81,-17
-83,-19
-81,-15
-75,-19
-75,-19
-73,-23
-71,-25
-65,-27
-63,-31
-51,-31
-51,-31
-47,-29
-39,-29
-37,-29
-29,-23
-25,-13
-23,-5
-29,-1
-35,3
-33,7
-45,5
-45,-1
-43,3
-49,1
-47,-1
-47,-3
-37,1
-41,-1
-39,-1
-37,-1
-37,-3
-33,-1
-43,-1
-47,-3
-37,-3
-31,-1
-35,-5
-37,-5
-41,-5
-45,-3
-33,3
-23,21
-19,29
-9,37
21,43
15,13
-3,5
-17,-3
-19,-7
-39,-15
-67,-25
-73,-27
-71,-25
-65,-27
-71,-27
-61,-23
-47,-23
-135,-15
-181,23
-67,81
289,57
563,-69
593,-207
257,-193
19,-113
-67,-37
-95,-17
-95,-17
-95,-19
-105,-21
-95,-19
-97,-17
-93,-17
-87,-15
-85,-13
-83,-11
-79,-15
-81,-17
-85,-17
-81,-15
-85,-19
-79,-21
-81,-21
-73,-23
-69,-25
-63,-27
-57,-27
-57,-29
-53,-29
-47,-29
-39,-27
-31,-23
-27,-17
-21,-9
-23,-3
-29,5
-33,7
-37,5
-43,5
-43,5
-45,3
-47,1
-41,3
-35,5
-37,1
-37,-1
-35,-3
-29,5
-35,3
-27,1
-27,-1
-25,1
-27,-1
-31,-1
-25,-1
-27,1
-29,-1
-33,1
-35,-3
-35,1
-13,13
-9,27
-7,35
25,45
35,33
25,15
9,9
-1,-1
-13,-3
-43,-15
-55,-21
-53,-21
-53,-21
-47,-21
-49,-21
-41,-17
-61,-11
-143,11
-105,69
135,71
499,-1
653,-179
385,-203
79,-137
-33,-51
-67,-9
-73,-7
-73,-5
-65,-9
-67,-11
-65,-9
-63,-3
-61,-7
-59,-7
-53,-5
-55,-5
-55,-5
-45,-5
-43,-5
-45,-3
-45,-7
-37,-9
-41,-9
-27,-11
-27,-13
-15,-13
-11,-13
-11,-15
-1,-15
11,-13
11,-7
21,-1
19,3
17,5
17,13
11,15
3,13
-5,11
-5,9
-5,11
1,9
-5,9
-3,7
-1,9
-1,5
11,7
-13,9
-39,9
-43,9
-37,5
-39,9
-35,7
-35,7
-39,5
-35,1
-31,5
-39,3
-41,1
-39,3
-39,5
-25,9
-11,27
-5,37
7,43
27,47
27,25
23,21
7,11
-3,5
-27,-1
-43,-13
-49,-13
-49,-13
-51,-15
-49,-13
-49,-11
-33,-11
-105,3
-157,41
-35,91
327,49
581,-93
641,-225
321,-205
61,-115
-39,-29
-75,3
-73,1
-75,-1
-73,-5
-71,-1
-71,3
-63,5
-57,5
-59,5
-59,5
-63,5
-55,5
-53,1
-53,5
-49,1
-45,-1
-45,3
-41,1
-35,-1
-35,-3
-29,-3
-21,1
-17,-1
-19,-3
-13,3
-9,9
-3,13
-3,19
-5,23
-5,25
-7,25
-7,21
-11,21
-15,21
-25,19
-15,13
-13,15
-11,17
-11,17
-13,13
-11,17
-7,13
-11,13
-5,13
-5,13
-3,13
1,11
-7,9
-3,9
-7,9
-11,7
-15,5
-13,5
-15,9
-13,7
-11,7
-11,5
-11,11
9,21
11,33
15,39
45,49
53,37
51,23
27,11
19,3
-7,1
-29,-11
-35,-17
-33,-19
-33,-17
-35,-21
-37,-17
-25,-15
-43,-13
-125,15
-91,69
165,55
497,-51
655,-217
453,-229
139,-153
1,-53
-51,-7
-61,-7
-65,-7
-63,-9
-63,-9
-63,-9
-61,-7
-59,-7
-57,-7
-53,-5
-55,-1
-51,-5
-49,-3
-51,-7
-47,-3
-47,-5
-49,-9
-39,-11
-35,-7
-33,-11
-27,-13
-23,-13
-17,-13
-11,-13
-9,-11
-5,-5
5,-1
5,3
7,7
3,9
-3,19
-11,11
-19,11
-13,9
-19,9
-19,3
-19,5
-15,5
-25,7
-17,5
-5,1
-11,3
-9,5
-11,3
-11,1
-11,1
-5,5
-7,-1
-9,1
-17,-1
-15,1
-15,-1
-17,-5
-27,-5
-19,-3
-15,-5
-21,-7
-23,-7
-21,-3
-21,-5
-17,-1
5,13
13,29
7,33
35,35
31,21
25,11
9,-7
1,-7
-15,-11
-37,-17
-41,-23
-39,-23
-39,-21
-35,-19
-27,-17
-29,-15
-119,9
-115,57
57,67
415,21
617,-147
505,-227
181,-187
15,-87
-45,-17
-67,-9
-71,-13
-63,-13
-63,-13
-59,-11
-61,-11
-57,-11
-51,-11
-53,-9
-49,-9
-55,-11
-51,-11
-49,-9
-43,-11
-43,-13
-43,-13
-39,-13
-39,-13
-33,-15
-31,-17
-21,-19
-13,-19
-13,-19
-7,-19
-3,-15
-1,-15
5,-11
11,-3
9,5
1,7
-11,3
-13,7
-11,7
-15,5
-19,1
-21,-1
-17,3
-17,3
-15,-1
-13,-1
-9,1
-3,-1
-7,-3
-13,-1
-7,-1
-13,-1
-9,-3
-9,-5
-13,-3
-15,-5
-15,-9
-17,-5
-15,-5
-19,-5
-19,-9
-19,-9
-15,-7
-17,-9
-13,-11
-17,-7
-19,-5
-21,-7
-17,-9
9,7
21,27
11,29
31,29
35,17
35,9
11,-9
9,-15
-1,-9
-27,-19
-35,-23
-35,-25
-33,-25
-27,-23
-21,-23
-15,-23
-85,-7
-121,29
-3,77
313,39
561,-93
583,-229
267,-209
49,-113
-33,-27
-57,-9
-55,-13
-57,-15
-57,-17
-55,-11
-53,-11
-49,-15
-47,-11
-45,-9
-41,-11
-41,-13
-41,-7
-39,-7
-35,-9
-31,-11
-31,-13
-27,-11
-29,-13
-19,-15
-13,-17
-7,-15
-3,-19
-3,-23
5,-19
9,-15
11,-13
17,-13
21,-7
19,3
17,3
9,5
7,5
5,7
-3,3
-3,-1
-3,-1
3,-1
-1,-5
3,-5
5,-5
9,-1
5,-1
5,-3
11,-1
15,1
9,-5
9,-3
7,-3
9,-1
3,-3
1,-7
1,-5
3,-3
1,-5
-3,-7
-1,-7
-3,-5
-3,-7
-1,-7
-3,-9
-1,-7
-3,-7
-1,-5
21,3
33,23
27,27
49,29
59,27
61,15
25,-1
25,-11
13,-7
-11,-19
-19,-25
-17,-27
-15,-25
-13,-23
-9,-23
1,-21
-87,1
-111,45
37,79
417,25
617,-157
537,-255
203,-197
39,-85
-25,-15
-43,-5
-37,-11
-41,-11
-41,-11
-43,-9
-41,-11
-33,-11
-31,-9
-29,-7
-27,-11
-27,-7
-29,-7
-25,-5
-31,-9
-25,-9
-19,-7
-13,-9
-17,-11
-13,-15
-9,-17
-5,-15
-3,-19
-1,-19
11,-17
11,-15
11,-13
23,-11
23,-3
31,5
29,9
19,9
13,9
7,11
3,7
7,5
3,9
5,7
7,7
9,5
7,5
7,9
9,9
11,7
19,7
17,9
13,9
7,9
11,7
15,7
11,9
13,7
3,7
9,9
3,7
3,7
7,9
5,7
-1,7
-9,7
7,11
31,31
31,41
33,43
63,49
61,37
55,27
37,11
25,5
9,3
-17,-9
-33,-13
-21,-13
-13,-13
-17,-11
-21,-11
-1,-11
-61,3
-125,39
-21,89
333,35
595,-139
591,-251
243,-203
51,-81
-21,-5
-49,5
-57,-1
-49,-5
-41,-1
-49,-3
-51,-1
-53,1
-37,3
-35,3
-37,3
-39,3
-37,5
-39,5
-39,1
-35,1
-29,1
-19,1
-23,-1
-15,-1
-13,1
-13,-1
-5,-3
1,-1
3,1
7,-1
9,3
19,5
19,13
21,17
11,19
3,19
-1,21
-9,17
-11,11
-19,13
-11,13
-5,13
-7,11
-7,13
-9,11
-9,9
1,9
3,9
1,11
-5,7
-7,5
-7,7
-3,7
-5,5
-7,5
-9,5
-9,5
-5,5
-9,1
-13,3
-11,5
-9,-1
-13,1
-15,1
-11,5
11,19
21,33
19,41
47,47
47,31
41,19
21,9
17,-1
1,-3
-25,-17
-39,-21
-35,-21
-33,-19
-31,-21
-25,-19
-29,-15
-33,-13
-127,13
-115,67
137,59
497,-45
651,-227
417,-229
115,-135
-9,-39
-55,1
-61,-1
-61,-5
-63,-5
-57,-5
-53,-7
-57,-3
-57,-3
-57,-5
-55,-3
-55,3
-47,-1
-49,-3
-47,-3
-45,-1
-41,-3
-37,-5
-35,-3
-35,-5
-27,-7
-21,-11
-17,-11
-17,-7
-13,-7
-3,-5
5,-5
9,3
13,7
11,11
1,15
-5,17
-11,15
-13,13
-19,13
-21,11
-19,9
-19,7
-23,9
-23,9
-19,5
-15,3
-15,7
-13,7
-9,5
-7,3
-11,1
-17,3
-13,3
-13,3
-17,1
-13,1
-15,1
-17,-1
-19,-3
-23,-1
-21,-3
-21,-3
-23,-3
-25,-1
-11,3
3,25
9,33
5,41
37,45
43,23
25,21
21,7
13,-3
-11,-7
-35,-17
-41,-25
-45,-23
-41,-23
-39,-21
-35,-19
-27,-19
-57,-17
-139,13
-89,69
165,53
481,-45
603,-207
387,-213
115,-141
-3,-55
-55,-11
-67,-9
-67,-11
-67,-15
-71,-13
-65,-13
-61,-13
-59,-13
-55,-9
-59,-9
-53,-9
-51,-9
-57,-7
-47,-7
-43,-7
-43,-11
-43,-11
-37,-9
-35,-11
-33,-13
-33,-15
-23,-13
-15,-15
-11,-15
-7,-15
-3,-9
-1,-7
7,-5
5,3
3,9
-5,11
-9,9
-15,9
-21,11
-21,5
-25,5
-25,1
-19,5
-13,3
-19,1
-13,3
-11,1
-15,3
-11,1
-13,-1
-11,1
-9,1
-9,-3
-9,-3
-13,-1
-15,-5
-17,-5
-23,-5
-19,-3
-15,-7
-19,-7
-15,-9
-17,-5
-19,-9
-21,-11
-19,-9
-15,-5
-1,11
11,25
15,29
39,35
37,17
41,9
25,-3
17,-9
-17,-15
-31,-25
-35,-29
-33,-25
-33,-29
-35,-29
-31,-25
-15,-21
-81,-15
-127,23
-3,77
329,33
565,-133
569,-261
267,-219
59,-115
-29,-33
-59,-9
-59,-15
-59,-17
-59,-17
-63,-19
-63,-17
-57,-13
-57,-15
-53,-15
-51,-13
-51,-9
-49,-13
-49,-13
-47,-13
-39,-11
-41,-15
-45,-15
-35,-15
-29,-15
-31,-17
-23,-23
-17,-21
-13,-19
-15,-17
-13,-15
-3,-15
7,-7
9,-3
13,3
5,5
1,9
-7,7
-9,5
-13,5
-17,5
-17,3
-9,1
-11,1
-11,3
-7,1
-9,1
-1,1
1,5
1,1
-5,-3
-5,-1
-11,1
-3,-1
1,-5
-1,-3
-3,-1
-7,-1
-17,-5
-13,-3
-5,-3
-9,-5
-15,-7
-11,-5
-17,-3
-21,-5
-5,-1
15,15
21,29
19,29
43,35
51,17
37,11
21,-5
13,-5
-7,-9
-29,-17
-31,-23
-29,-23
-27,-21
-23,-21
-23,-17
-19,-17
-101,7
-125,55
75,73
459,-11
635,-189
495,-245
153,-171
5,-69
-51,-7
-61,-1
-55,-7
-59,-11
-57,-7
-51,-7
-63,-7
-55,-9
-51,-5
-47,-3
-49,-5
-47,-7
-47,-5
-47,-1
-47,-3
-39,-5
-39,-5
-37,-7
-29,-9
-31,-11
-27,-11
-21,-9
-17,-11
-15,-13
-11,-11
-7,-5
-3,-5
-1,-3
3,3
-1,11
-5,15
-13,13
-19,13
-21,13
-25,9
-27,7
-27,7
-25,9
-23,5
-19,1
-15,5
-11,7
-13,5
-11,5
-11,5
-9,5
-11,3
-11,3
-15,3
-13,5
-9,1
-17,1
-17,-1
-17,1
-15,1
-23,1
-23,1
-19,1
-21,-1
-21,-3
-21,-3
-29,1
-27,-1
-25,-1
-9,7
7,25
11,33
17,35
41,37
41,21
23,15
5,-5
-11,-3
-25,-11
-37,-17
-45,-21
-41,-21
-39,-19
-39,-19
-37,-19
-35,-15
-133,13
-131,65
73,53
439,-39
625,-219
517,-263
167,-175
-1,-55
-61,-1
-75,-3
-79,-9
-73,-11
-73,-9
-73,-9
-73,-9
-69,-7
-67,-3
-69,-5
-69,-5
-67,-5
-65,-3
-57,-5
-59,-5
-57,-5
-51,-3
-53,-9
-45,-9
-43,-7
-37,-5
-37,-7
-27,-9
-23,-5
-19,-1
-17,-3
-19,-1
-7,3
-3,11
-9,13
-11,13
-21,13
-27,15
-29,11
-37,7
-35,5
-35,7
-37,3
-33,3
-35,1
-29,3
-31,3
-31,1
-25,3
-29,5
-31,1
-25,1
-29,1
-25,1
-27,1
-25,-1
-23,-3
-25,1
-29,-3
-35,-7
-37,-7
-31,-5
-37,-5
-41,-9
-35,-9
-39,-7
-39,-5
-39,-9
-41,-7
-35,-9
-41,-7
-33,-9
-35,-11
-35,-7
-13,7
-9,25
-9,27
15,31
19,21
21,9
-11,-9
-13,-13
-27,-9
-51,-21
-57,-25
-51,-23
-47,-21
-51,-21
-45,-19
-41,-13
-135,7
-139,49
61,61
443,-7
631,-167
435,-205
101,-131
-31,-33
-77,3
-85,1
-85,1
-85,1
-77,3
-81,1
-79,1
-75,5
-69,5
-73,3
-73,1
-69,5
-69,1
-69,-1
-65,-1
-59,-1
-63,-3
-55,-7
-55,-9
-53,-9
-47,-9
-41,-13
-35,-13
-27,-11
-29,-11
-21,-9
-15,-5
-7,1
-11,3
-21,9
-25,11
-33,11
-45,5
-45,3
-51,5
-47,5
-43,-1
-41,-1
-43,-3
-41,-3
-45,-3
-43,-5
-47,-3
-35,-5
-33,-5
-35,-5
-33,-5
-35,-3
-39,-5
-39,-7
-39,-7
-41,-5
-41,-7
-43,-9
-37,-9
-39,-9
-41,-9
-45,-11
-47,-11
-45,-7
-49,-13
-49,-13
-45,-13
-45,-9
-45,-13
-43,-15
-43,-13
-39,-13
-41,-13
-45,-15
-35,-13
-29,-3
-7,15
-5,19
3,23
15,23
9,5
-7,-5
-9,-21
-19,-11
-41,-21
-55,-29
-57,-31
-49,-29
-47,-31
-47,-29
-35,-27
-107,-13
-147,25
-27,73
317,25
557,-129
523,-253
191,-217
15,-101
-53,-23
-81,-15
-79,-23
-77,-25
-79,-19
-79,-21
-81,-21
-79,-19
-73,-17
-71,-19
-73,-19
-71,-19
-69,-17
-69,-19
-65,-19
-65,-21
-61,-21
-59,-21
-59,-25
-53,-23
-45,-21
-39,-25
-37,-29
-25,-25
-21,-25
-33,-25
-15,-21
-3,-15
-5,-9
-11,-5
-25,-3
-31,-1
-41,1
-43,-5
-53,-7
-47,-9
-45,-7
-43,-11
-45,-15
-45,-17
-43,-15
-49,-15
-41,-19
-33,-17
-33,-15
-33,-17
-29,-19
-35,-19
-35,-19
-35,-21
-39,-21
-37,-29
-39,-25
-41,-21
-49,-25
-47,-25
-43,-23
-45,-27
-41,-29
-51,-25
-49,-23
-47,-29
-49,-31
-47,-27
-45,-23
-43,-29
-51,-29
-43,-27
-45,-27
-41,-27
-41,-29
-27,-23
-7,1
-11,5
-5,5
11,9
17,-7
-3,-15
-21,-35
-21,-25
-43,-33
-57,-43
-63,-45
-49,-41
-39,-39
-43,-39
-35,-39
-83,-35
-143,1
-63,59
233,41
517,-61
621,-237
325,-255
53,-163
-47,-65
-81,-23
-79,-31
-73,-35
-79,-35
-77,-29
-75,-29
-75,-33
-67,-35
-65,-31
-67,-31
-65,-33
-63,-31
-59,-29
-61,-31
-61,-33
-55,-33
-55,-33
-49,-33
-51,-37
-41,-39
-41,-39
-35,-39
-29,-39
-17,-37
-13,-35
-13,-35
-3,-33
-5,-27
-9,-19
-7,-17
-19,-17
-29,-17
-29,-15
-35,-19
-37,-19
-37,-21
-35,-23
-43,-29
-33,-31
-27,-39
-25,-51
-27,-51
-23,-49
-21,-47
-19,-49
-25,-51
-23,-53
-23,-51
-25,-49
-25,-51
-25,-51
-23,-51
-23,-47
-23,-49
-27,-51
-29,-51
-31,-51
-35,-51
-29,-51
-33,-49
-29,-47
-35,-49
-35,-49
-29,-47
-33,-43
-21,-41
-1,-25
-3,-13
1,-11
13,-9
25,-27
-1,-31
-5,-43
-11,-39
-37,-47
-51,-53
-51,-51
-45,-49
-37,-51
-37,-47
-29,-43
-77,-37
-143,-5
-51,49
303,31
555,-91
601,-247
259,-249
31,-157
-45,-71
-67,-29
-65,-27
-71,-29
-73,-31
-71,-31
-69,-29
-69,-25
-69,-27
-65,-27
-61,-25
-63,-23
-61,-25
-57,-25
-55,-27
-55,-25
-49,-27
-49,-27
-47,-29
-41,-25
-39,-27
-29,-29
-25,-31
-23,-31
-19,-29
-13,-29
-9,-27
-5,-23
-13,-19
-5,-13
-9,-9
-19,-1
-25,-3
-33,-5
-37,-7
-37,-5
-35,-7
-37,-9
-35,-9
-31,-7
-33,-7
-35,-9
-25,-9
-17,-3
-17,-9
-23,-9
-27,-7
-21,-5
-19,-9
-23,-11
-23,-11
-25,-9
-25,-9
-25,-11
-25,-11
-29,-11
-31,-11
-29,-11
-29,-11
-35,-11
-35,-11
-29,-13
-33,-13
-31,-11
-33,-13
-33,-13
-35,-11
-19,-3
1,17
1,25
9,27
27,29
25,11
5,1
-5,-15
-9,-9
-33,-17
-53,-27
-49,-29
-45,-25
-43,-27
-39,-25
-31,-23
-55,-21
-145,9
-111,61
137,47
467,-57
623,-235
489,-269
153,-187
1,-65
-59,-9
-77,-9
-81,-15
-77,-13
-73,-13
-75,-15
-73,-13
-73,-9
-69,-11
-67,-11
-63,-11
-69,-7
-63,-9
-57,-9
-63,-11
-57,-9
-55,-5
-53,-11
-49,-9
-43,-7
-39,-7
-33,-9
-37,-7
-21,-7
-11,-5
-7,-5
-5,-1
-3,5
1,5
1,9
-7,11
-15,11
-27,7
-39,1
-43,1
-33,1
-29,-1
-35,-5
-31,-3
-29,-1
-33,-7
-37,-9
-23,-7
-23,-5
-21,-7
-19,-7
-21,-7
-25,-5
-25,-9
-23,-9
-19,-7
-27,-7
-23,-7
-25,-11
-27,-9
-25,-9
-29,-11
-31,-13
-33,-13
-37,-11
-31,-11
-31,-15
-33,-13
-31,-11
-33,-13
-33,-15
-27,-13
-25,-9
5,9
7,21
7,25
31,29
25,13
17,3
-1,-15
-3,-13
-23,-21
-47,-31
-57,-33
-53,-29
-55,-29
-49,-33
-39,-29
-39,-25
-123,-9
-137,33
59,63
409,-1
595,-179
493,-253
161,-203
3,-85
-61,-19
-79,-13
-75,-17
-71,-17
-69,-17
-69,-17
-79,-15
-69,-13
-63,-15
-63,-15
-61,-13
-61,-13
-59,-13
-55,-13
-55,-17
-55,-15
-51,-15
-45,-19
-41,-19
-37,-17
-31,-21
-25,-23
-21,-23
-19,-23
-13,-21
-7,-21
-3,-17
7,-13
9,-9
5,-1
-1,1
-7,5
-17,5
-25,-1
-29,-1
-29,-3
-29,-5
-31,-7
-29,-7
-27,-5
-27,-9
-27,-9
-23,-9
-21,-7
-19,-9
-19,-9
-17,-9
-17,-9
-19,-9
-19,-13
-21,-11
-13,-11
-17,-11
-21,-15
-21,-15
-25,-13
-29,-15
-29,-17
-29,-17
-27,-13
-27,-15
-25,-17
-21,-17
-19,-13
-21,-17
-25,-19
-21,-19
-11,-11
3,3
5,17
3,19
23,23
21,5
15,-3
3,-23
-1,-15
-11,-23
-21,-31
-21,-35
-17,-31
-17,-35
-15,-35
-11,-31
-9,-29
-39,-3
-43,43
17,55
135,-19
201,-205
157,-257
57,-177
9,-67
-9,-17
-13,-21
-13,-23
-11,-21
-9,-21
-11,-23
-9,-21
-9,-19
-9,-19
-7,-21
-7,-17
-7,-17
-7,-19
-7,-21
-7,-21
-5,-19
-3,-21
-3,-23
-3,-23
-3,-21
-3,-23
-1,-27
1,-23
3,-19
3,-21
3,-21
5,-17
7,-9
7,-5
7,-1
5,3
5,1
-1,1
-5,-3
-5,-1
-5,-3
-5,-5
-7,-5
-5,-3
-3,-3
-1,-1
-5,-5
-1,-1
1,1
-3,1
-3,-1
-5,-1
-3,1
-1,1
-5,-1
-5,-1
-1,1
-7,1
-7,-1
-7,-1
-5,-1
-11,-3
-15,-7
-19,-9
-15,-5
-17,-7
-13,-7
-13,-5
-17,-5
-9,-3
1,11
11,21
15,23
27,27
37,7
19,3
7,-9
3,-3
-17,-15
-29,-23
-31,-21
-35,-23
-33,-23
-27,-23
-15,-19
-59,-11
-137,23
-43,81
303,59
555,-79
609,-245
291,-231
53,-127
-35,-39
-63,-9
-65,-9
-57,-11
-55,-11
-59,-13
-59,-11
-63,-9
-51,-9
-49,-9
-51,-7
-47,-5
-47,-7
-43,-7
-39,-7
-51,-7
-39,-11
-39,-11
-33,-13
-27,-9
-25,-13
-19,-15
-13,-15
-9,-13
-5,-13
-3,-11
3,-11
1,-7
11,-1
9,3
-5,9
-7,11
-13,13
-15,9
-19,7
-27,9
-27,5
-23,5
-19,7
-17,9
-17,7
-19,5
-11,5
-7,7
-15,5
-9,3
-13,5
-11,5
-7,3
-11,1
-7,1
-9,3
-15,1
-13,1
-15,1
-21,1
-23,-3
-19,-3
-19,-3
-21,-1
-19,-3
-17,-3
-19,-3
-21,-3
-21,-3
-17,-5
-21,-5
-15,5
9,23
17,31
21,35
37,39
39,19
23,11
7,-7
1,-1
-19,-11
-37,-23
-35,-21
-31,-19
-29,-19
-27,-21
-19,-17
-43,-11
-125,19
-85,73
155,51
467,-63
593,-231
473,-257
163,-169
13,-47
-45,-1
-65,-5
-61,-7
-61,-7
-59,-7
-57,-9
-59,-5
-55,-3
-49,-3
-55,-3
-55,-5
-53,-1
-49,-1
-51,-3
-45,-3
-43,-1
-41,-3
-39,-3
-37,-5
-33,-1
-29,-1
-23,-3
-15,-3
-11,-1
-3,-1
-3,1
5,5
1,11
11,13
7,13
-1,15
-7,15
-15,15
-21,11
-23,9
-27,11
-31,5
-25,5
-23,5
-23,5
-17,5
-19,1
-21,1
-13,3
-17,3
-13,1
-7,1
-15,3
-19,1
-21,1
-17,3
-17,1
-17,1
-19,-1
-21,1
-23,1
-25,3
-25,-1
-29,1
-27,1
-25,-1
-29,-1
-27,-5
-29,-3
-23,-1
-27,-3
-27,1
-19,5
3,17
7,29
5,35
27,37
29,25
25,13
1,-5
-3,-7
-15,-7
-31,-19
-37,-21
-37,-19
-39,-21
-37,-23
-31,-19
-27,-15
-109,1
-113,49
95,63
453,-21
611,-211
455,-245
149,-163
9,-45
-47,-3
-59,-7
-61,-7
-67,-9
-61,-11
-61,-11
-63,-13
-67,-7
-63,-7
-57,-9
-53,-9
-55,-9
-49,-9
-45,-9
-45,-9
-43,-7
-39,-13
-39,-13
-41,-9
-33,-9
-25,-15
-15,-17
-11,-13
-5,-11
-11,-13
-5,-13
7,-7
11,-1
11,1
5,3
1,7
-5,7
-11,5
-25,3
-29,1
-31,-1
-29,-3
-29,-5
-27,-5
-19,-5
-23,-5
-29,-7
-15,-7
-9,-5
-11,-5
-11,-7
-15,-5
-13,-5
-15,-7
-17,-11
-11,-11
-19,-9
-19,-11
-23,-11
-25,-11
-25,-9
-25,-13
-23,-13
-27,-15
-27,-13
-25,-15
-23,-17
-27,-17
-27,-15
-29,-17
-27,-19
-23,-19
-25,-15
-21,-13
1,-1
7,15
5,17
29,15
31,5
21,-3
1,-19
3,-19
-21,-23
-37,-31
-37,-33
-39,-35
-39,-35
-31,-35
-33,-33
-31,-31
-117,-15
-129,29
49,51
411,-13
609,-177
509,-247
191,-199
17,-97
-55,-35
-69,-25
-69,-29
-71,-31
-69,-33
-67,-31
-67,-29
-65,-29
-63,-31
-61,-27
-57,-27
-67,-29
-63,-29
-51,-27
-51,-27
-53,-29
-53,-31
-51,-31
-47,-29
-45,-31
-31,-33
-29,-35
-23,-33
-17,-33
-13,-35
-9,-29
-3,-25
1,-25
5,-21
9,-13
-3,-9
-5,-11
-13,-9
-19,-13
-25,-13
-29,-15
-31,-15
-35,-19
-29,-17
-19,-17
-23,-21
-27,-19
-15,-15
-15,-15
-15,-17
-15,-19
-15,-17
-17,-15
-15,-19
-19,-17
-15,-13
-21,-13
-25,-17
-27,-17
-23,-17
-29,-17
-29,-17
-25,-17
-23,-15
-23,-19
-25,-19
-35,-19
-37,-15
-39,-17
-35,-19
-37,-21
-31,-13
-3,-3
-17,11
-9,13
23,17
25,7
19,-3
-7,-19
-11,-15
-29,-19
-51,-29
-49,-33
-43,-31
-45,-31
-45,-31
-41,-31
-33,-25
-117,-11
-145,29
29,77
419,25
607,-141
525,-255
165,-213
-9,-99
-63,-25
-75,-13
-71,-19
-75,-17
-75,-19
-71,-21
-69,-17
-71,-13
-67,-13
-63,-13
-59,-3
-59,7
-57,-3
-65,-15
-59,-13
-51,-9
-47,-11
-45,-19
-41,-23
-35,-19
-33,-25
-35,-31
-29,-25
-25,-21
-25,-27
-13,-23
-3,-21
7,-11
7,-7
3,-9
-13,-5
-25,-3
-27,-3
-31,-9
-33,-9
-33,-9
-31,-11
-31,-9
-21,-11
-23,-15
-31,-15
-23,-13
-13,-13
-15,-13
-21,-11
-19,-15
-9,-17
-13,-11
-19,-3
-23,-13
-21,-21
-19,-21
-25,-17
-25,-17
-25,-13
-27,-9
-27,-11
-27,-13
-29,-9
-31,-1
-33,3
-31,7
-33,9
-37,17
-33,17
-17,21
-5,31
3,39
15,37
23,39
25,35
15,37
3,33
-9,31
-37,33
-53,35
-51,31
-53,31
-53,37
-45,37
-43,39
-51,39
-131,43
-135,53
61,61
403,51
577,25
503,9
183,13
13,31
-59,45
-79,49
-89,49
-91,47
-95,49
-91,49
-93,51
-87,49
-75,49
-77,49
-75,51
-77,49
-77,47
-73,49
-73,47
-77,45
-71,45
-73,45
-65,45
-61,43
-57,43
-55,43
-55,41
-53,37
-45,35
-41,35
-45,31
-43,29
-35,29
-35,29
-39,25
-33,21
-33,17
-49,21
-61,23
-65,17
-65,13
-49,13
-55,9
-59,9
-63,5
-59,7
-61,5
-69,3
-67,3
-65,1
-63,-3
-59,-9
-63,-17
-45,-19
-53,-17
-57,-19
-57,-25
-67,-29
-55,-23
-51,-23
-49,-23
-53,-23
-55,-27
-51,-29
-51,-23
-51,-19
-55,-13
-67,-13
-71,-15
-41,-15
-13,3
-3,9
15,21
39,27
33,13
17,9
3,1
-29,-7
-57,-21
-73,-33
-73,-37
-67,-35
-75,-35
-83,-33
-85,-31
-79,-29
-171,-15
-185,27
21,55
393,-9
583,-183
435,-245
101,-195
-55,-83
-109,-25
-123,-21
-125,-23
-123,-21
-123,-21
-119,-21
-115,-21
-111,-19
-107,-21
-107,-21
-113,-21
-111,-19
-107,-21
-103,-23
-103,-21
-97,-21
-99,-21
-97,-25
-91,-27
-89,-23
-79,-25
-79,-27
-67,-27
-59,-23
-57,-25
-51,-23
-47,-19
-43,-15
-45,-11
-51,-7
-55,-3
-55,1
-63,1
-71,-3
-75,-3
-75,-3
-77,-7
-81,-7
-77,-5
-73,-5
-69,-5
-71,-7
-73,-5
-67,-3
-65,-5
-59,-7
-59,-5
-61,-5
-65,-7
-65,-9
-61,-9
-61,-9
-59,-13
-61,-13
-59,-17
-57,-13
-63,-17
-69,-19
-73,-21
-69,-21
-71,-23
-69,-25
-69,-23
-69,-19
-59,-23
-41,-5
-39,9
-29,15
-5,15
3,1
-3,-3
-15,-15
-29,-27
-57,-31
-79,-39
-83,-45
-81,-45
-73,-45
-71,-45
-67,-41
-59,-43
-109,-37
-171,-5
-83,57
245,29
515,-87
603,-245
317,-249
39,-165
-71,-69
-103,-29
-105,-31
-105,-35
-105,-35
-99,-33
-95,-31
-101,-33
-103,-37
-97,-33
-93,-31
-91,-31
-89,-35
-87,-35
-81,-33
-79,-35
-81,-33
-79,-35
-77,-33
-67,-37
-63,-39
-51,-39
-41,-41
-37,-43
-39,-45
-31,-43
-25,-39
-25,-33
-19,-31
-13,-25
-19,-17
-35,-17
-49,-19
-57,-17
-63,-15
-59,-17
-57,-21
-53,-23
-51,-19
-49,-21
-41,-19
-43,-21
-41,-17
-31,-19
-29,-21
-23,-21
-27,-17
-31,-21
-33,-21
-29,-19
-19,-19
-21,-21
-27,-21
-29,-21
-29,-19
-25,-21
-29,-23
-31,-23
-31,-19
-33,-21
-31,-21
-27,-23
-27,-19
-13,-11
-9,5
-9,11
11,15
17,13
15,-5
-5,-23
-5,-29
-23,-17
-51,-25
-45,-33
-39,-33
-43,-33
-43,-35
-33,-31
-27,-27
-107,-13
-121,27
71,69
433,29
597,-127
535,-251
201,-217
19,-117
-43,-41
-63,-19
-57,-25
-57,-23
-61,-27
-55,-25
-47,-23
-47,-21
-43,-23
-45,-23
-41,-23
-43,-21
-43,-21
-41,-23
-39,-25
-35,-21
-35,-23
-35,-27
-33,-25
-25,-23
-21,-27
-17,-31
-11,-33
-5,-31
1,-31
5,-31
5,-27
7,-23
9,-19
11,-13
11,-9
1,-3
-5,-3
-5,-5
-13,-7
-9,-5
-7,-5
-13,-9
-11,-9
-5,-5
-7,-1
-3,-3
-1,-1
-1,-1
5,-1
5,-3
5,-1
7,1
-1,-3
-5,-3
-7,-1
-7,-3
-3,-5
-3,-7
-3,-5
-3,-5
-5,-7
-7,-9
-3,-5
-5,-5
-11,-9
-9,-9
-7,-5
15,7
21,23
25,29
39,33
51,37
47,17
41,9
25,-7
11,-5
-7,-11
-23,-21
-23,-25
-19,-23
-21,-23
-23,-23
-19,-19
-25,-17
-101,11
-73,59
155,67
483,-35
607,-215
411,-245
131,-145
13,-39
-35,-3
-45,-5
-47,-7
-47,-5
-55,-7
-51,-9
-41,-7
-37,-5
-37,-5
-41,-9
-41,-9
-39,-3
-37,-5
-37,-7
-31,-9
-27,-5
-23,-11
-21,-11
-17,-13
-11,-13
-7,-15
-1,-17
5,-17
7,-13
11,-15
19,-15
15,-11
25,-5
25,-1
19,-3
13,-3
3,-3
-5,-7
-9,-9
-9,-11
-7,-11
-5,-11
-5,-17
-5,-17
1,-15
-1,-15
7,-15
9,-15
1,-13
-1,-15
5,-15
3,-11
1,-9
-1,-11
-1,-9
3,-9
3,-7
-1,-11
-11,-11
-7,-11
-7,-11
-3,-13
-9,-13
-5,-11
-3,-9
-3,-13
-3,-11
9,-5
15,13
27,21
39,25
43,27
51,15
51,5
37,-3
23,-19
15,-17
-7,-27
-31,-35
-27,-35
-15,-23
-5,-19
-15,-27
-7,-27
1,-31
-35,-23
-83,3
-5,61
309,27
551,-99
609,-233
349,-221
87,-113
1,-21
-37,1
-53,-7
-51,-7
-59,-9
-57,-9
-55,-11
-49,-13
-55,-11
-65,-15
-67,-17
-65,-13
-63,-15
-49,-15
-55,-17
-53,-17
-53,-19
-43,-25
-35,-27
-29,-23
-25,-23
-27,-23
-15,-19
7,-13
17,-1
29,7
53,9
53,9
61,5
53,5
51,-1
55,1
43,-5
29,-7
17,-9
11,-7
3,-11
-5,-9
-9,-11
-13,-7
-17,-11
-7,-7
-5,-3
-7,-3
-11,-3
-17,-5
-25,-7
-27,-9
-25,-11
-21,-15
-21,-11
-31,-17
-31,-19
-27,-21
-27,-19
-25,-17
-17,-19
-19,-17
-21,-17
-25,-17
-31,-19
-35,-17
-33,-15
-13,-3
-9,11
-11,13
1,15
5,9
-5,-1
-25,-15
-43,-23
-45,-23
-57,-31
-65,-37
-63,-37
-59,-29
-53,-27
-49,-19
-33,-7
-77,13
-155,49
-59,103
265,91
539,-21
593,-197
305,-215
65,-131
-25,-43
-53,-15
-59,-17
-57,-27
-57,-23
-57,-23
-57,-23
-49,-21
-45,-21
-45,-21
-51,-25
-53,-25
-49,-23
-47,-25
-45,-25
-43,-25
-39,-25
-31,-25
-31,-29
-27,-27
-19,-29
-13,-31
-9,-31
-7,-33
-3,-31
1,-29
5,-31
13,-23
21,-17
15,-15
9,-13
-5,-11
-5,-9
-1,-13
-7,-11
-19,-13
-19,-11
-19,-15
-17,-15
-13,-17
-13,-15
-13,-13
-11,-13
-7,-13
-3,-11
-1,-11
-3,-15
-1,-11
-1,-9
-9,-15
-5,-15
-9,-9
-1,-11
-5,-15
-5,-19
-9,-21
-5,-23
-13,-21
-15,-25
-11,-21
-19,-21
-23,-21
-25,-21
-9,-15
5,7
11,13
25,13
35,21
31,-3
7,-9
-3,-23
-9,-15
-29,-23
-43,-31
-33,-33
-33,-31
-33,-31
-25,-27
-13,-29
-73,-15
-129,25
-25,77
319,57
573,-51
617,-207
279,-217
47,-137
-29,-53
-57,-7
-63,-7
-61,-9
-59,-11
-59,-9
-61,-11
-61,-19
-55,-23
-49,-23
-49,-23
-51,-21
-43,-15
-43,-13
-43,-17
-41,-19
-39,-19
-31,-15
-29,-17
-29,-19
-27,-19
-13,-23
-11,-27
-15,-27
-3,-29
-1,-23
5,-19
13,-15
19,-13
21,-7
17,3
11,-1
17,3
11,7
9,9
1,7
-3,7
-9,13
-7,11
-7,11
-3,7
1,11
1,9
-1,11
11,15
15,21
9,21
1,21
7,21
17,19
13,11
9,7
15,9
11,5
3,3
-5,5
-3,5
3,5
-1,3
-1,-1
-1,5
-17,9
-3,13
7,31
5,43
33,43
57,41
61,27
49,25
33,7
13,-7
-11,-17
-27,-19
-23,-9
-23,-1
-25,-3
-25,-11
-19,-17
-15,-19
-107,3
-119,51
59,71
429,-3
621,-177
571,-249
233,-203
45,-85
-39,-17
-61,-7
-55,-9
-49,-9
-55,-11
-53,-13
-55,-9
-51,-9
-51,-11
-51,-11
-45,-7
-33,-9
-49,-11
-51,-9
-45,-9
-45,-13
-47,-19
-45,-23
-43,-27
-37,-31
-23,-27
-7,-19
5,-29
9,-41
11,-39
17,-35
21,-27
37,-17
41,-7
33,5
21,9
15,7
5,17
-1,25
-13,31
-23,27
-25,15
-9,9
-5,9
3,13
-3,11
5,13
1,19
7,19
1,19
5,9
15,1
11,1
-1,-1
1,-1
7,3
9,5
1,1
3,-5
3,-3
-3,-5
-3,-3
-3,-5
1,-9
-1,-7
-5,-13
-17,-11
-9,-11
-5,-7
21,7
29,21
29,27
53,27
55,13
45,5
35,-5
21,-17
11,-19
-13,-35
-25,-35
-33,-35
-25,-35
-27,-33
-25,-31
-17,-33
-59,-27
-113,3
-25,65
311,41
571,-89
599,-223
241,-207
37,-107
-33,-31
-53,-19
-47,-21
-51,-27
-55,-25
-49,-23
-41,-21
-41,-21
-45,-25
-47,-25
-47,-21
-49,-19
-37,-23
-35,-21
-35,-23
-35,-25
-31,-29
-39,-27
-29,-27
-21,-33
-13,-35
-11,-31
-13,-31
-7,-37
7,-33
11,-29
13,-27
13,-25
13,-19
23,-13
23,-9
9,-11
-3,-13
-9,-13
-5,-13
-5,-13
-15,-15
-15,-15
-5,-15
-9,-17
-3,-19
-1,-15
-3,-13
3,-15
3,-15
3,-17
5,-15
9,-15
5,-17
5,-15
5,-11
-1,-13
-1,-17
3,-17
-1,-15
3,-15
-7,-15
-1,-13
-9,-11
9,-9
29,13
7,21
-11,21
-103,29
63,7
107,5
79,-13
43,-17
7,-27
-19,-33
-23,-37
-23,-35
-21,-39
-17,-35
-17,-31
-11,-33
-85,-21
-137,13
-17,71
345,53
593,-69
629,-209
259,-205
33,-131
-39,-51
-59,-23
-53,-25
-77,-27
-73,-29
-99,-27
-71,-25
-39,-23
-47,-27
-49,-23
-45,-19
-45,-23
-47,-25
-45,-25
-45,-21
-39,-27
-41,-31
-43,-31
-35,-31
-39,-27
-33,-35
-21,-37
-15,-35
-5,-39
5,-41
3,-39
1,-35
1,-35
-53,-25
-121,-15
-3,-9
55,-3
19,1
1,1
-13,-1
-21,-5
-25,-7
-23,-7
-21,-5
-25,-11
-23,-7
-17,-7
-23,-9
-21,-9
-21,-13
-21,-9
-21,-9
-23,-11
-23,-11
-31,-13
-31,-11
-29,-13
-31,-17
-41,-15
-53,-13
-41,-11
-37,-15
-23,-9
-31,-3
-69,15
-7,27
27,29
37,37
27,9
11,1
-7,-15
-13,-15
-35,-19
-57,-27
-61,-31
-59,-29
-55,-27
-57,-33
-57,-31
-45,-27
-103,-17
-145,3
-47,65
249,71
517,-11
571,-155
287,-177
41,-137
-53,-57
-85,-19
-163,-19
-145,-17
-75,-13
-85,-17
-61,-19
-61,-15
-75,-15
-75,-17
-77,-17
-81,-13
-79,-13
-75,-15
-77,-19
-73,-23
-69,-21
-59,-27
-59,-25
-57,-27
-51,-29
-39,-31
-37,-33
-35,-35
-37,-35
-37,-31
-23,-29
-19,-23
-15,-15
-11,-11
-21,-3
-43,3
-45,5
-35,5
-73,1
-75,-1
-95,5
-45,-1
-49,3
-31,5
-37,-5
-49,-3
-43,-1
-53,1
-51,-5
-47,-3
-49,-3
-45,-1
-45,-3
-49,-5
-49,-5
-53,-1
-51,-3
-49,-3
-57,-1
-65,-1
-47,13
-33,29
-31,41
-5,49
11,39
-11,9
-23,1
-43,-9
-63,-3
-81,-17
-99,-15
-99,-17
-95,-13
-97,-17
-97,-17
-89,-9
-87,-7
-185,7
-169,53
23,85
415,83
595,-87
337,-171
25,-141
-65,-53
-111,-3
-117,-5
-127,-1
-125,-5
-119,-5
-119,-1
-113,-1
-111,-5
-109,-3
-103,-1
-99,-1
-95,-1
-95,1
-87,-1
-79,-1
-87,-7
-87,-11
-83,-13
-79,-11
-75,-13
-67,-15
-65,-15
-61,-15
-63,-17
-49,-17
-43,-9
-39,-5
-39,3
-39,5
-43,13
-53,21
-57,27
-65,27
-75,25
-99,25
-113,29
-121,25
-61,25
-45,29
-49,31
-51,29
-57,33
-55,33
-61,35
-53,31
-53,33
-49,37
-51,37
-53,35
-55,35
-59,39
-49,43
-35,63
-35,81
-21,85
5,87
-1,55
-15,53
-27,45
-35,41
-65,39
-85,33
-117,29
-89,31
-75,33
-69,35
-69,37
-65,37
-143,45
-189,67
-97,123
239,145
529,87
575,-57
251,-95
-11,-61
-101,9
-131,47
-121,51
-123,51
-125,43
-127,53
-119,47
-129,49
-119,47
-125,51
-129,53
-123,49
-117,49
-115,49
-119,49
-119,43
-119,41
-115,37
-107,37
-107,29
-95,27
-87,23
-87,27
-87,25
-81,23
-71,29
-57,31
-55,33
-53,37
-47,45
-49,59
-59,61
-65,65
-77,69
-79,69
-81,65
-73,65
-85,67
-71,71
-69,69
-73,65
-69,67
-63,79
-59,79
-51,75
-53,79
-55,85
-67,81
-65,79
-61,81
-51,93
-45,107
-39,113
-31,127
-1,129
-15,107
-19,93
-35,91
-47,83
-49,85
-89,73
-99,65
-97,65
-99,69
-87,69
-101,73
-69,67
-125,73
-209,91
-143,143
207,155
521,77
631,-67
301,-83
5,-33
-93,43
-121,73
-125,73
-121,75
-103,75
-117,71
-105,73
-105,75
-97,71
-99,69
-93,71
-99,73
-97,73
-97,71
-101,65
-97,65
-85,61
-89,61
-77,61
-73,59
-69,57
-61,53
-59,51
-55,53
-55,53
-47,53
-43,55
-33,65
-29,69
-33,73
-39,79
-41,77
-45,77
-51,79
-49,75
-45,73
-49,69
-45,69
-43,65
-41,67
-51,65
-43,63
-33,65
-27,63
-29,61
-33,59
-37,55
-35,63
-39,59
-35,61
-1,81
1,97
-1,99
35,105
49,79
39,65
17,53
7,47
-9,45
-35,33
-55,19
-63,9
-63,13
-61,17
-69,13
-61,9
-71,11
-159,35
-145,77
69,73
421,-9
615,-169
519,-195
147,-127
-27,-25
-91,17
-109,13
-107,3
-107,1
-103,1
-107,3
-107,-5
-105,-3
-103,1
-97,7
-91,1
-99,3
-87,9
-85,9
-91,5
-85,5
-77,5
-75,7
-81,1
-73,1
-63,1
-57,-1
-55,3
-39,5
-41,11
-33,11
-25,13
-27,17
-23,21
-11,23
-21,25
-27,25
-29,21
-37,17
-37,9
-35,11
-39,9
-43,13
-41,5
-39,9
-27,17
-25,9
-19,11
-19,13
-25,11
-23,9
-25,5
-15,11
-15,13
-5,15
7,33
11,57
15,63
43,69
51,41
43,21
27,19
5,11
-3,9
-25,1
-47,-9
-49,-13
-49,-17
-39,-21
-31,-23
-27,-25
-41,-21
-141,-9
-113,45
139,51
499,-23
671,-189
509,-209
167,-159
3,-61
-59,-17
-71,-11
-65,-15
-65,-19
-59,-19
-57,-17
-59,-19
-55,-19
-53,-13
-51,-7
-49,-9
-45,-5
-47,-9
-47,-7
-41,-15
-37,-17
-35,-15
-31,-13
-27,-21
-25,-27
-19,-27
-15,-27
-7,-27
-3,-25
-1,-23
5,-17
17,-13
29,-5
33,3
27,11
23,11
11,11
3,9
3,5
-5,7
-5,9
-1,11
-3,13
3,13
1,13
1,9
-1,13
3,15
1,17
5,21
3,25
3,25
-1,23
-5,17
-3,17
-3,13
-5,21
11,27
21,47
17,57
39,61
49,61
49,41
43,37
29,25
15,25
-15,15
-39,9
-39,3
-35,5
-31,9
-21,5
-17,5
-27,3
-135,15
-85,69
217,83
557,25
687,-137
405,-165
93,-117
-13,-35
-45,7
-49,3
-59,-3
-45,-7
-29,-7
-35,-7
-33,-7
-29,-7
-15,-3
-7,-1
-11,1
-11,-5
-7,-9
-3,-9
5,-9
3,-11
-9,-9
9,-15
19,-17
19,-15
21,-13
27,-19
27,-25
37,-13
45,-11
43,-7
53,-1
65,7
75,13
59,21
81,25
73,27
67,31
69,25
61,23
55,23
61,21
69,21
69,27
73,23
65,21
77,19
81,21
79,23
81,25
73,19
77,21
77,17
85,17
75,21
89,31
103,45
107,55
123,61
129,53
133,33
105,33
107,25
103,25
75,19
67,13
71,9
71,11
69,11
75,13
85,11
39,17
-35,43
17,101
271,109
525,31
621,-125
441,-165
183,-99
91,-17
53,17
53,21
55,23
49,17
43,19
55,21
65,21
63,21
53,33
55,37
61,35
59,29
57,29
59,31
63,29
63,21
61,21
63,21
63,19
63,13
65,11
65,9
65,9
67,9
69,7
77,13
89,19
93,25
95,27
93,29
93,33
95,31
93,33
87,31
85,29
87,29
87,33
89,33
93,29
93,21
87,15
85,17
83,13
89,11
85,9
85,7
85,7
81,1
77,1
81,9
93,21
95,25
103,33
131,43
137,25
129,9
121,5
109,-3
89,-7
55,-23
35,-35
41,-33
51,-33
51,-39
51,-39
61,-43
-11,-33
-81,-1
23,55
415,9
659,-137
735,-275
473,-249
173,-147
47,-69
11,-45
11,-49
13,-51
11,-51
9,-51
-69,-53
-95,-51
-91,-55
-75,-57
-73,-55
-77,-51
-79,-53
-75,-57
-67,-61
-59,-59
-59,-63
-55,-67
-55,-71
-53,-73
-53,-73
-49,-75
-45,-67
-35,-65
-29,-69
-39,-71
-31,-67
-15,-63
-9,-59
-7,-57
-7,-53
-23,-59
-17,-63
-13,-69
-19,-73
-19,-71
-23,-75
-23,-79
-15,-81
-9,-83
-9,-81
-13,-83
-15,-89
-17,-87
-17,-91
-21,-93
-19,-91
-21,-91
-29,-97
-21,-93
11,-75
1,-65
-3,-61
39,-57
39,-67
33,-81
17,-93
1,-105
-23,-113
-47,-121
-69,-129
-69,-137
-73,-139
-69,-139
-73,-135
-71,-139
-139,-137
-233,-115
-139,-51
219,-103
575,-241
719,-349
501,-345
93,-253
-79,-169
-131,-141
-139,-147
-141,-149
-149,-151
-149,-149
-147,-149
-145,-151
-149,-151
-145,-151
-147,-149
-149,-153
-153,-149
-145,-147
-149,-151
-151,-153
-149,-151
-155,-151
-151,-151
-157,-153
-155,-151
-141,-149
-149,-151
-149,-149
-147,-159
-141,-159
-141,-157
-127,-155
-113,-153
-111,-151
-113,-153
-113,-163
-115,-163
-121,-161
-115,-159
-123,-157
-117,-159
-109,-157
-115,-159
-117,-161
-109,-157
-111,-157
-109,-159
-107,-157
-109,-157
-109,-157
-111,-159
-113,-161
-113,-165
-115,-169
-107,-161
-91,-145
-97,-137
-87,-131
-61,-123
-57,-141
-69,-155
-81,-157
-99,-171
-125,-175
-147,-185
-157,-191
-165,-195
-161,-197
-157,-195
-153,-193
-151,-195
-225,-183
-269,-161
-127,-105
223,-155
485,-293
531,-365
225,-345
-33,-267
-151,-207
-187,-193
-195,-197
-205,-197
-207,-197
-209,-195
-207,-191
-203,-191
-201,-191
-205,-193
-203,-185
-207,-181
-207,-187
-209,-183
-209,-183
-209,-183
-209,-183
-205,-181
-203,-179
-205,-183
-209,-185
-209,-185
-209,-181
-211,-181
-203,-177
-199,-173
-191,-169
-175,-167
-167,-157
-159,-161
-157,-159
-159,-157
-167,-159
-173,-163
-171,-167
-177,-167
-171,-165
-169,-169
-169,-163
-171,-163
-177,-167
-165,-163
-159,-161
-163,-165
-159,-171
-163,-169
-165,-169
-171,-167
-171,-169
-171,-161
-151,-153
-149,-141
-147,-133
-135,-131
-121,-123
-121,-145
-129,-155
-143,-165
-159,-169
-189,-179
-211,-189
-211,-191
-213,-189
-211,-191
-205,-189
-203,-187
-237,-183
-343,-169
-311,-117
1,-113
421,-199
613,-329
317,-345
-41,-281
-179,-213
-231,-185
-239,-187
-233,-191
-229,-183
-235,-183
-235,-185
-235,-183
-229,-181
-227,-183
-229,-183
-243,-179
-265,-177
-263,-181
-263,-179
-267,-179
-263,-179
-269,-183
-265,-183
-269,-187
-265,-187
-269,-187
-269,-189
-271,-187
-267,-183
-269,-179
-267,-179
-253,-173
-235,-165
-227,-157
-221,-155
-229,-153
-225,-153
-227,-153
-237,-155
-235,-155
-227,-151
-223,-153
-235,-155
-229,-151
-219,-147
-215,-147
-219,-151
-217,-153
-217,-147
-217,-149
-217,-149
-223,-151
-219,-151
-219,-155
-231,-157
-219,-157
-205,-137
-203,-131
-195,-127
-167,-119
-165,-133
-177,-145
-193,-155
-203,-161
-225,-165
-249,-175
-251,-181
-251,-179
-253,-181
-253,-181
-243,-179
-245,-177
-335,-159
-355,-115
-133,-83
295,-137
563,-283
353,-331
-53,-295
-215,-221
-273,-167
-281,-165
-281,-167
-279,-167
-277,-163
-275,-165
-275,-167
-275,-169
-273,-167
-269,-173
-263,-175
-255,-173
-247,-171
-251,-175
-245,-177
-245,-177
-241,-179
-239,-183
-235,-187
-233,-189
-229,-185
-225,-187
-223,-191
-207,-185
-199,-183
-195,-183
-177,-179
-163,-173
-151,-167
-145,-163
-141,-161
-145,-155
-147,-153
-145,-153
-139,-159
-143,-155
-127,-155
-125,-157
-109,-159
-101,-159
-99,-157
-107,-157
-105,-157
-95,-155
-93,-157
-89,-157
-81,-163
-71,-161
-71,-161
-73,-159
-53,-153
-47,-135
-31,-129
-13,-123
7,-123
13,-147
1,-149
-15,-161
-17,-155
-33,-163
-49,-169
-45,-171
-33,-167
-33,-169
-19,-163
-3,-153
-33,-155
-117,-141
-81,-89
199,-67
575,-113
719,-249
503,-275
207,-247
75,-189
31,-151
37,-145
39,-141
43,-143
45,-139
39,-133
49,-133
63,-127
81,-123
57,-117
31,-123
27,-125
39,-117
45,-113
45,-115
59,-117
63,-115
61,-109
61,-111
73,-111
85,-109
93,-105
97,-107
97,-105
103,-99
111,-85
121,-73
137,-61
159,-45
155,-31
147,-25
143,-15
145,-11
141,-1
139,5
139,5
141,11
143,21
147,27
149,33
151,45
153,53
155,55
153,55
159,59
163,65
159,67
153,69
155,75
175,85
181,97
185,101
211,109
213,107
203,97
183,81
181,83
161,85
137,75
131,65
133,65
131,63
137,61
143,61
139,63
35,71
31,105
241,145
593,131
727,21
667,-75
355,-69
189,-15
123,41
103,61
95,63
93,61
93,59
95,61
99,61
101,61
105,65
103,67
99,69
103,77
105,77
101,77
97,71
93,67
91,67
99,67
99,69
97,65
93,69
89,63
87,63
85,61
89,61
97,69
101,73
113,79
123,85
119,93
113,95
109,101
109,97
97,95
93,97
91,99
87,99
87,91
89,91
93,91
89,95
93,93
89,91
85,89
77,89
75,91
77,95
83,97
95,113
93,127
99,129
125,133
123,121
111,105
91,97
87,91
67,87
37,77
23,67
23,65
33,63
33,59
29,63
33,67
-79,77
-123,111
67,161
483,127
691,-25
641,-141
243,-117
47,-37
-11,31
-33,49
-35,45
-35,47
-33,53
-45,55
-49,55
-43,53
-43,57
-53,49
-55,49
-51,45
-47,47
-53,41
-55,37
-53,33
-57,35
-65,33
-65,27
-69,25
-65,25
-67,25
-77,21
-79,21
-73,27
-73,29
-63,29
-53,37
-53,47
-55,55
-51,53
-57,57
-63,59
-67,51
-71,49
-67,45
-65,45
-71,41
-67,43
-75,45
-77,47
-77,43
-79,41
-81,33
-85,37
-87,37
-91,35
-83,37
-79,53
-69,61
-59,65
-37,69
-41,53
-57,33
-77,19
-83,13
-105,7
-135,-5
-139,-17
-141,-21
-139,-23
-145,-21
-145,-23
-137,-23
-241,-7
-299,29
-111,61
327,-9
591,-165
567,-243
165,-209
-71,-107
-167,-35
-197,-23
-199,-33
-199,-35
-199,-31
-205,-31
-207,-31
-203,-31
-201,-23
-207,-19
-211,-27
-207,-31
-201,-29
-205,-19
-201,-27
-207,-25
-203,-25
-207,-33
-199,-39
-197,-53
-203,-37
-201,-35
-199,-41
-195,-49
-189,-45
-181,-43
-187,-37
-175,-25
-165,-25
-161,-27
-171,-31
-171,-33
-177,-31
-181,-27
-185,-37
-183,-43
-187,-41
-185,-37
-183,-39
-181,-41
-179,-35
-177,-39
-179,-45
-177,-45
-177,-43
-177,-43
-181,-51
-179,-49
-173,-43
-159,-37
-157,-13
-153,-5
-137,7
-123,7
-129,-25
-143,-35
-155,-43
-163,-53
-185,-53
-207,-63
-207,-63
-207,-59
-203,-59
-205,-57
-195,-57
-225,-55
-311,-37
-271,13
-13,11
357,-73
537,-197
283,-223
-37,-173
-169,-93
-225,-59
-235,-55
-233,-55
-231,-57
-233,-59
-229,-53
-233,-51
-229,-51
-223,-59
-225,-59
-219,-57
-225,-59
-229,-57
-229,-59
-231,-61
-225,-63
-223,-69
-221,-69
-219,-71
-215,-63
-217,-65
-215,-67
-209,-67
-203,-65
-201,-65
-197,-61
-185,-55
-179,-55
-177,-49
-177,-45
-181,-45
-191,-49
-191,-51
-185,-53
-191,-49
-189,-53
-193,-55
-193,-51
-191,-53
-183,-53
-185,-53
-183,-49
-183,-45
-177,-47
-183,-49
-189,-47
-187,-47
-187,-47
-185,-47
-185,-47
-185,-45
-173,-41
-165,-29
-159,-19
-131,-11
-127,-11
-137,-29
-145,-37
-153,-47
-165,-49
-189,-57
-199,-67
-199,-73
-203,-73
-207,-75
-189,-69
-173,-67
-229,-57
-309,-31
-237,25
105,21
467,-73
561,-217
199,-239
-75,-171
-183,-93
-209,-59
-213,-53
-211,-57
-215,-53
-217,-53
-215,-53
-213,-53
-209,-53
-203,-51
-201,-47
-201,-43
-205,-49
-199,-51
-195,-49
-193,-47
-187,-51
-187,-53
-185,-53
-181,-55
-181,-57
-179,-61
-169,-61
-171,-59
-175,-59
-161,-61
-165,-53
-145,-45
-137,-39
-135,-33
-133,-27
-135,-17
-135,-19
-135,-21
-137,-19
-141,-19
-135,-21
-135,-21
-131,-21
-123,-21
-121,-21
-117,-23
-115,-19
-117,-11
-109,-13
-105,-17
-99,-15
-99,-21
-99,-23
-109,-25
-107,-23
-101,-19
-89,-25
-93,-27
-79,-19
-63,1
-65,7
-53,9
-41,15
-37,-7
-51,-13
-71,-35
-77,-27
-95,-31
-109,-39
-111,-45
-111,-41
-107,-41
-95,-39
-89,-41
-129,-33
-203,3
-165,49
91,43
473,-39
651,-199
399,-233
65,-173
-65,-81
-119,-29
-133,-27
-133,-31
-127,-29
-125,-27
-121,-27
-125,-27
-121,-27
-117,-23
-115,-19
-111,-21
-109,-19
-109,-17
-97,-19
-97,-21
-91,-23
-95,-21
-91,-21
-79,-27
-73,-27
-71,-27
-65,-29
-73,-29
-63,-29
-53,-25
-53,-21
-45,-17
-29,-5
-25,5
-35,11
-39,11
-49,11
-43,13
-43,7
-43,5
-49,5
-45,1
-35,-1
-35,-3
-39,1
-29,5
-23,3
-19,-1
-21,7
-27,3
-21,1
-21,-1
-29,3
-21,7
-17,5
-15,7
-21,7
-23,5
-19,3
-21,5
-27,5
-27,7
-29,5
-15,7
5,29
5,39
23,39
37,43
37,25
25,17
13,-1
15,5
-11,-1
-29,-11
-31,-15
-25,-15
-29,-13
-27,-11
-5,-7
-65,-3
-125,37
-35,91
325,49
625,-91
661,-221
301,-203
69,-105
-21,-25
-43,1
-37,1
-37,-5
-35,-5
-29,-5
-27,-1
-27,-1
-25,1
-21,5
-19,7
-15,3
-15,1
-11,3
-9,1
-7,1
-9,-1
-5,5
3,1
9,-1
11,-5
17,-5
27,-5
29,-3
31,-5
37,3
43,11
49,13
49,17
53,25
51,31
45,33
37,31
33,27
29,29
27,25
27,21
29,17
33,21
31,19
33,17
31,13
37,13
43,11
45,13
45,13
47,19
51,17
43,13
35,13
35,13
33,13
23,13
33,13
37,13
33,13
29,9
25,9
31,11
27,7
23,5
29,7
27,11
29,9
27,7
33,7
47,31
47,41
49,41
71,41
77,27
51,11
49,1
47,13
23,5
9,-1
13,-3
19,-1
21,5
31,1
3,5
-79,45
-23,99
239,63
567,-53
693,-207
399,-207
125,-107
21,-13
-11,21
-11,17
-13,15
-17,15
-13,13
-1,17
-1,13
-3,21
-7,29
-5,33
-5,31
-5,29
-1,29
5,31
9,29
11,25
15,25
17,29
21,29
23,25
29,29
35,27
39,31
43,29
51,27
49,23
49,37
49,33
49,39
41,53
37,51
33,45
31,41
21,45
21,39
21,47
21,29
19,43
23,41
19,43
25,41
27,31
27,41
33,39
27,45
35,57
33,43
31,45
35,41
33,43
29,45
33,39
25,35
33,43
29,39
21,43
21,37
29,35
23,31
21,41
25,43
23,33
21,43
21,39
21,33
25,35
23,37
25,27
23,41
21,41
33,43
47,57
47,69
51,71
65,67
67,51
41,29
43,33
41,29
21,13
5,1
7,5
13,1
17,3
21,5
-17,15
-71,49
-7,105
269,65
569,-63
639,-217
341,-209
91,-95
5,1
-13,25
-17,17
-21,17
-19,19
-19,23
-21,21
-15,21
-11,25
-5,25
3,25
7,29
9,33
5,29
7,27
11,29
15,29
17,29
15,25
21,25
25,23
29,23
33,25
39,21
39,27
47,27
51,27
55,35
53,41
57,45
55,47
45,51
39,51
37,49
29,45
27,51
23,47
19,45
29,47
27,43
31,45
33,49
35,45
31,47
35,47
39,49
41,47
