Var1_ 1,Var1_ 2,Var1_ 3,Var1_ 4,Var1_ 5,Var1_ 6,Var1_ 7,Var1_ 8,Var1_ 9,Var1_10,Var1_11,Var1_12
1161,457,-93,-850,467,179,-1052,-1020,-1045,-1246,506,1972
1150,452,-87,-842,459,180,-1056,-1016,-1037,-1240,508,1973
1152,458,-83,-846,458,185,-1057,-1007,-1025,-1229,512,1973
1176,462,-103,-860,480,177,-1062,-1003,-1017,-1224,509,1968
1167,459,-97,-854,472,178,-1063,-997,-1007,-1213,521,1979
1155,466,-78,-852,457,191,-1058,-982,-990,-1197,540,1996
1164,473,-80,-860,462,194,-1066,-980,-986,-1191,543,1998
1189,491,-87,-881,478,199,-1072,-975,-978,-1181,547,2003
1184,500,-73,-883,469,211,-1069,-963,-968,-1167,552,2009
1188,503,-74,-887,471,212,-1073,-962,-966,-1164,545,1999
1196,497,-88,-888,482,202,-1083,-970,-975,-1170,527,1980
1205,498,-96,-893,491,198,-1082,-965,-973,-1165,523,1977
1209,505,-93,-898,491,203,-1083,-964,-974,-1159,529,1989
1196,493,-92,-886,484,198,-1084,-970,-987,-1168,505,1973
1201,489,-101,-886,491,191,-1093,-984,-1007,-1182,490,1963
1200,490,-99,-886,490,193,-1093,-993,-1021,-1190,501,1970
1190,488,-91,-880,481,196,-1089,-1003,-1037,-1199,510,1977
1160,478,-71,-860,456,201,-1084,-1011,-1053,-1209,525,1995
1146,474,-61,-851,444,204,-1081,-1020,-1067,-1218,540,2013
1143,458,-74,-842,449,189,-1078,-1035,-1085,-1235,537,2009
1149,462,-76,-847,453,190,-1081,-1050,-1100,-1251,527,2001
1149,463,-75,-847,452,191,-1082,-1062,-1114,-1265,511,1991
1148,465,-72,-848,450,194,-1081,-1071,-1123,-1272,500,1984
1142,458,-73,-841,448,190,-1076,-1077,-1130,-1278,491,1977
1131,442,-78,-828,445,179,-1073,-1082,-1138,-1285,476,1965
1132,437,-84,-826,448,174,-1073,-1084,-1141,-1287,467,1959
1129,425,-93,-818,451,163,-1072,-1088,-1143,-1289,457,1951
1130,424,-95,-818,453,162,-1073,-1091,-1144,-1289,459,1954
1134,424,-99,-820,457,160,-1074,-1094,-1142,-1289,457,1951
1138,421,-106,-821,462,155,-1077,-1097,-1143,-1290,444,1938
1145,417,-117,-822,471,147,-1080,-1099,-1144,-1291,432,1932
1138,407,-120,-814,469,141,-1079,-1097,-1143,-1287,437,1936
1131,399,-121,-806,466,136,-1078,-1097,-1142,-1286,448,1943
1140,403,-126,-813,473,136,-1081,-1099,-1141,-1286,457,1953
1132,402,-119,-808,466,139,-1079,-1098,-1141,-1288,454,1949
1114,397,-106,-797,450,143,-1071,-1090,-1134,-1284,461,1957
1104,389,-104,-788,444,140,-1066,-1084,-1129,-1282,462,1956
1122,381,-130,-793,466,123,-1071,-1089,-1133,-1290,450,1943
1124,374,-139,-790,472,115,-1071,-1090,-1132,-1292,453,1945
1118,358,-149,-779,474,102,-1057,-1074,-1116,-1278,470,1961
1124,300,-213,-753,509,41,-1042,-1058,-1101,-1263,486,1975
1127,241,-275,-725,541,-20,-1028,-1045,-1089,-1252,496,1985
1123,205,-307,-705,555,-54,-1015,-1034,-1078,-1244,504,1992
1117,182,-324,-691,561,-74,-1005,-1021,-1070,-1234,513,2001
1108,176,-321,-683,555,-75,-1006,-1021,-1074,-1238,508,1995
1108,180,-317,-685,553,-71,-1008,-1023,-1077,-1246,503,1987
1118,195,-312,-698,555,-61,-1014,-1029,-1084,-1254,500,1982
1117,202,-304,-701,551,-54,-1019,-1034,-1090,-1261,497,1975
1106,210,-285,-699,536,-40,-1020,-1037,-1090,-1262,497,1974
1103,212,-280,-699,532,-37,-1018,-1034,-1085,-1261,497,1976
1095,216,-268,-697,522,-29,-1012,-1022,-1073,-1255,511,1990
1102,220,-271,-702,527,-28,-1017,-1027,-1077,-1259,517,1993
1112,222,-279,-708,536,-31,-1027,-1039,-1085,-1270,506,1982
1115,236,-268,-717,532,-19,-1033,-1046,-1093,-1278,490,1967
1115,245,-259,-721,527,-10,-1037,-1051,-1099,-1284,483,1958
1124,260,-253,-733,529,1,-1046,-1058,-1099,-1291,482,1952
1143,301,-231,-763,527,32,-1061,-1071,-1112,-1301,475,1945
1117,329,-177,-764,487,73,-1066,-1078,-1127,-1307,471,1945
1091,337,-143,-755,457,94,-1067,-1081,-1139,-1311,465,1938
1105,350,-144,-769,465,100,-1071,-1086,-1153,-1321,448,1923
1113,384,-118,-790,456,130,-1070,-1083,-1156,-1324,450,1926
1123,411,-101,-808,452,152,-1072,-1081,-1155,-1325,462,1938
1137,420,-106,-820,462,154,-1085,-1092,-1168,-1340,453,1930
1133,423,-99,-819,456,159,-1093,-1101,-1182,-1351,439,1915
1125,421,-93,-814,449,161,-1092,-1107,-1195,-1364,426,1902
1132,457,-64,-836,438,194,-1095,-1111,-1201,-1369,427,1907
1110,477,-22,-835,406,225,-1095,-1113,-1201,-1372,427,1910
1116,503,-2,-851,399,248,-1100,-1118,-1199,-1380,418,1904
1123,521,9,-863,397,262,-1108,-1127,-1205,-1391,410,1898
1134,529,6,-873,404,265,-1117,-1134,-1220,-1400,404,1892
1151,544,4,-889,414,271,-1124,-1141,-1237,-1410,398,1890
1133,559,37,-887,388,295,-1126,-1145,-1246,-1418,396,1889
1117,581,75,-890,361,325,-1129,-1148,-1254,-1425,392,1884
1119,620,112,-911,344,363,-1139,-1155,-1264,-1433,384,1875
1136,664,139,-941,339,399,-1150,-1162,-1272,-1439,374,1867
1150,694,155,-963,338,422,-1169,-1181,-1297,-1455,359,1852
1144,700,167,-963,329,431,-1171,-1181,-1308,-1452,361,1853
1121,655,145,-929,328,397,-1151,-1160,-1295,-1427,376,1869
1132,605,84,-910,364,342,-1143,-1152,-1282,-1406,392,1888
1150,577,38,-905,396,305,-1138,-1142,-1250,-1388,408,1901
1129,555,37,-883,386,293,-1126,-1128,-1217,-1366,421,1912
1137,540,14,-880,402,274,-1126,-1119,-1197,-1349,430,1921
1187,541,-35,-905,451,250,-1137,-1114,-1182,-1340,433,1924
1201,528,-62,-906,472,230,-1145,-1112,-1175,-1335,435,1928
1184,516,-57,-891,461,227,-1145,-1112,-1173,-1335,437,1929
1165,506,-48,-877,447,226,-1135,-1110,-1172,-1338,431,1922
1161,484,-66,-864,454,206,-1133,-1116,-1177,-1348,412,1905
1175,474,-90,-866,473,189,-1129,-1116,-1178,-1351,415,1911
1181,468,-102,-866,482,180,-1130,-1121,-1181,-1354,427,1917
1155,461,-83,-849,459,186,-1118,-1113,-1173,-1346,437,1925
1149,469,-69,-850,449,197,-1102,-1100,-1161,-1334,448,1933
1146,476,-59,-852,443,206,-1092,-1097,-1159,-1333,448,1932
1134,475,-48,-846,431,211,-1086,-1098,-1165,-1337,445,1929
1140,468,-61,-845,441,201,-1087,-1105,-1175,-1347,442,1922
1133,449,-73,-832,443,185,-1086,-1110,-1185,-1357,433,1912
1114,437,-66,-817,430,183,-1077,-1105,-1186,-1359,425,1906
1113,432,-70,-814,432,178,-1074,-1104,-1189,-1361,412,1896
1121,432,-78,-818,440,174,-1072,-1103,-1190,-1362,407,1887
1123,428,-84,-817,444,169,-1071,-1107,-1192,-1366,401,1879
1135,427,-97,-822,456,162,-1070,-1107,-1189,-1366,400,1878
1138,432,-95,-826,457,166,-1064,-1103,-1185,-1362,405,1883
1125,437,-77,-822,441,177,-1065,-1102,-1183,-1358,416,1894
1126,433,-82,-821,444,173,-1069,-1108,-1188,-1361,415,1894
1102,417,-74,-801,428,169,-1066,-1109,-1189,-1361,413,1891
1096,412,-73,-795,425,167,-1060,-1102,-1184,-1357,411,1888
1107,411,-85,-800,436,160,-1054,-1095,-1177,-1357,403,1882
1118,404,-103,-802,451,148,-1045,-1088,-1172,-1362,387,1866
1099,399,-89,-790,434,152,-1026,-1072,-1158,-1354,391,1864
1087,402,-74,-786,421,161,-1012,-1063,-1151,-1349,391,1855
1074,402,-61,-779,408,168,-998,-1050,-1140,-1337,393,1851
1068,404,-53,-777,401,173,-986,-1024,-1114,-1309,399,1855
1111,436,-64,-815,428,183,-992,-998,-1071,-1257,430,1882
1156,478,-67,-858,452,203,-1007,-962,-1001,-1174,477,1920
1241,548,-82,-936,502,231,-1052,-922,-920,-1074,547,1987
1329,605,-113,-1008,561,244,-1111,-894,-852,-980,632,2078
1415,648,-156,-1072,626,244,-1170,-873,-801,-909,702,2158
1472,668,-193,-1111,673,235,-1208,-865,-777,-871,734,2210
1438,677,-150,-1098,634,261,-1223,-928,-831,-914,715,2215
1333,626,-96,-1021,555,263,-1210,-1024,-960,-1040,665,2182
1225,505,-109,-906,507,196,-1135,-1036,-1056,-1169,572,2096
1197,394,-192,-837,535,98,-1047,-982,-1085,-1257,457,1979
1194,363,-220,-820,547,69,-1018,-973,-1101,-1290,412,1927
1167,371,-185,-810,516,90,-1014,-1001,-1126,-1310,407,1915
1143,383,-149,-804,486,114,-1026,-1040,-1157,-1332,402,1908
1156,396,-149,-817,493,121,-1054,-1071,-1180,-1348,403,1909
1147,403,-133,-816,480,132,-1058,-1087,-1188,-1351,409,1909
1138,410,-117,-815,468,144,-1058,-1094,-1190,-1350,415,1909
1120,415,-94,-809,447,158,-1052,-1091,-1186,-1349,411,1904
1099,417,-71,-799,425,170,-1043,-1081,-1181,-1347,401,1894
1109,421,-77,-806,433,169,-1045,-1083,-1185,-1349,395,1892
1105,417,-77,-802,431,167,-1050,-1086,-1190,-1353,397,1893
1110,412,-87,-802,439,160,-1057,-1092,-1196,-1357,399,1894
1117,402,-104,-801,451,146,-1054,-1092,-1197,-1356,410,1900
1111,403,-97,-798,444,150,-1047,-1087,-1193,-1351,423,1909
1120,413,-96,-808,448,156,-1050,-1088,-1196,-1352,425,1912
1123,415,-97,-810,450,156,-1057,-1095,-1205,-1358,418,1904
1127,418,-98,-814,453,157,-1056,-1093,-1204,-1357,405,1894
1116,435,-70,-817,433,180,-1039,-1077,-1190,-1342,407,1900
1115,435,-69,-816,432,180,-1033,-1070,-1181,-1333,422,1912
1130,431,-88,-822,449,169,-1045,-1080,-1188,-1338,420,1908
1122,427,-84,-816,443,169,-1052,-1087,-1192,-1342,416,1905
1110,426,-73,-809,432,174,-1047,-1081,-1187,-1338,415,1906
1096,425,-60,-802,418,180,-1045,-1081,-1185,-1336,420,1912
1109,430,-68,-811,429,178,-1053,-1084,-1186,-1336,421,1914
1130,425,-94,-819,452,163,-1060,-1088,-1191,-1341,413,1906
1124,433,-80,-820,442,174,-1057,-1083,-1187,-1336,424,1914
1130,440,-79,-826,445,178,-1056,-1079,-1183,-1330,439,1922
1124,435,-78,-821,441,176,-1054,-1076,-1180,-1327,435,1916
1096,424,-61,-801,419,179,-1052,-1073,-1176,-1323,441,1922
1107,424,-72,-807,430,173,-1057,-1074,-1176,-1323,443,1923
1126,434,-81,-821,444,174,-1062,-1075,-1174,-1319,442,1921
1125,439,-75,-823,440,179,-1064,-1076,-1174,-1315,438,1919
1141,448,-82,-836,452,180,-1062,-1072,-1169,-1308,436,1922
1140,453,-76,-838,448,186,-1058,-1067,-1162,-1300,437,1925
1125,453,-61,-830,433,193,-1059,-1064,-1158,-1293,435,1926
1123,446,-66,-826,435,187,-1062,-1062,-1155,-1289,442,1926
1131,440,-80,-827,446,177,-1066,-1060,-1154,-1288,451,1928
1127,448,-68,-829,438,187,-1070,-1061,-1152,-1286,462,1936
1121,458,-52,-831,427,200,-1070,-1059,-1149,-1280,468,1942
1119,462,-46,-832,423,205,-1066,-1049,-1140,-1269,465,1941
1126,460,-55,-834,431,200,-1070,-1049,-1140,-1269,457,1936
1130,452,-67,-832,439,190,-1074,-1047,-1138,-1265,459,1938
1140,456,-73,-839,447,189,-1080,-1046,-1134,-1259,465,1939
1142,460,-71,-842,447,192,-1084,-1043,-1129,-1255,468,1939
1155,467,-77,-852,456,192,-1087,-1038,-1123,-1247,470,1941
1158,473,-74,-857,456,197,-1090,-1032,-1116,-1240,468,1940
1156,475,-70,-857,453,200,-1093,-1028,-1111,-1234,462,1937
1164,476,-77,-861,461,197,-1097,-1020,-1101,-1222,477,1948
1166,476,-79,-862,463,196,-1101,-1014,-1092,-1209,490,1954
1164,486,-67,-866,456,207,-1104,-1011,-1086,-1201,501,1964
1179,499,-69,-880,464,212,-1110,-1006,-1080,-1191,509,1971
1181,499,-71,-881,466,211,-1115,-1003,-1077,-1184,513,1975
1189,501,-77,-886,473,209,-1120,-1000,-1075,-1180,511,1972
1206,516,-79,-902,483,216,-1127,-998,-1073,-1176,513,1974
1215,523,-81,-910,488,218,-1132,-999,-1073,-1178,508,1965
1207,514,-82,-902,485,213,-1137,-1003,-1076,-1186,500,1958
1193,506,-76,-891,475,212,-1141,-1010,-1080,-1196,500,1956
1193,503,-79,-889,476,209,-1142,-1014,-1083,-1200,501,1959
1194,508,-75,-892,475,214,-1144,-1025,-1094,-1211,500,1961
1194,506,-77,-891,476,212,-1146,-1037,-1103,-1228,494,1956
1191,496,-84,-885,478,203,-1144,-1048,-1116,-1247,484,1949
1182,486,-85,-875,474,198,-1139,-1057,-1129,-1261,480,1947
1164,477,-76,-862,460,198,-1137,-1069,-1144,-1279,477,1947
1153,466,-76,-851,455,192,-1132,-1078,-1157,-1292,471,1943
1152,463,-78,-849,455,190,-1128,-1084,-1169,-1299,465,1939
1149,457,-81,-844,455,185,-1121,-1087,-1178,-1304,460,1937
1143,449,-83,-837,453,180,-1114,-1091,-1186,-1312,455,1935
1139,444,-84,-833,452,177,-1108,-1093,-1193,-1321,451,1933
1138,440,-87,-830,453,174,-1105,-1098,-1201,-1328,446,1930
1133,428,-94,-822,454,164,-1106,-1108,-1210,-1341,434,1920
1147,429,-107,-829,467,158,-1112,-1116,-1208,-1354,425,1911
1145,423,-111,-825,468,153,-1108,-1114,-1204,-1361,423,1910
1126,423,-92,-816,449,163,-1099,-1109,-1201,-1366,432,1921
1123,429,-83,-817,443,170,-1089,-1100,-1197,-1372,440,1926
1131,437,-83,-825,447,174,-1080,-1089,-1192,-1376,442,1930
1123,435,-77,-820,440,176,-1077,-1088,-1193,-1381,442,1934
1129,440,-78,-826,444,178,-1080,-1091,-1195,-1385,447,1938
1132,430,-91,-822,452,167,-1087,-1098,-1201,-1393,443,1930
1123,421,-91,-813,447,162,-1083,-1096,-1198,-1393,443,1928
1125,433,-81,-820,443,173,-1084,-1095,-1193,-1390,448,1933
1130,445,-74,-829,442,183,-1084,-1094,-1190,-1382,452,1939
1121,454,-56,-829,429,196,-1080,-1092,-1184,-1376,456,1943
1118,458,-49,-829,424,202,-1081,-1094,-1181,-1375,454,1943
1122,452,-59,-828,431,194,-1085,-1097,-1186,-1377,447,1937
1124,450,-63,-828,434,191,-1088,-1098,-1188,-1377,441,1933
1128,451,-66,-831,437,190,-1089,-1099,-1189,-1376,437,1933
1129,447,-71,-829,440,185,-1089,-1102,-1189,-1375,436,1934
1127,439,-77,-824,442,178,-1089,-1103,-1184,-1372,436,1936
1117,436,-70,-818,434,180,-1088,-1102,-1180,-1369,439,1940
1109,426,-72,-809,431,174,-1087,-1103,-1179,-1369,437,1942
1110,425,-74,-809,432,173,-1088,-1105,-1178,-1370,434,1944
1121,431,-79,-817,440,173,-1091,-1107,-1175,-1366,432,1945
1137,441,-85,-830,451,175,-1090,-1103,-1167,-1358,435,1948
1130,441,-78,-827,444,179,-1087,-1103,-1162,-1355,435,1953
1113,434,-68,-815,431,180,-1084,-1102,-1161,-1352,432,1954
1122,435,-76,-820,439,177,-1085,-1102,-1161,-1353,425,1947
1124,439,-74,-823,439,180,-1086,-1102,-1158,-1349,426,1948
1121,445,-65,-824,433,187,-1087,-1104,-1158,-1346,428,1953
1118,450,-57,-825,428,194,-1085,-1101,-1156,-1339,436,1966
1113,449,-53,-822,423,195,-1080,-1096,-1153,-1333,443,1974
1114,444,-59,-820,427,190,-1079,-1094,-1154,-1330,444,1977
1123,447,-65,-826,434,188,-1083,-1097,-1156,-1331,442,1975
1114,446,-57,-821,426,192,-1081,-1095,-1157,-1328,439,1972
1108,440,-57,-815,423,189,-1078,-1090,-1155,-1323,441,1976
1105,447,-47,-817,416,197,-1077,-1089,-1158,-1320,446,1982
1105,449,-45,-818,415,199,-1078,-1089,-1160,-1318,453,1989
1106,448,-47,-818,417,198,-1077,-1088,-1162,-1314,456,1992
1113,448,-54,-822,424,194,-1079,-1089,-1164,-1314,453,1990
1116,446,-59,-822,428,191,-1082,-1090,-1165,-1313,448,1985
1110,446,-53,-819,422,194,-1086,-1093,-1168,-1313,444,1982
1119,452,-56,-827,428,195,-1087,-1090,-1165,-1308,444,1985
1125,454,-60,-831,433,194,-1088,-1086,-1166,-1303,445,1986
1112,456,-45,-825,419,203,-1087,-1083,-1168,-1300,444,1982
1116,463,-42,-831,419,208,-1091,-1083,-1161,-1298,444,1980
1128,470,-47,-840,428,209,-1096,-1083,-1146,-1295,443,1980
1135,476,-48,-847,432,211,-1106,-1086,-1145,-1296,439,1976
1130,483,-36,-848,423,221,-1111,-1084,-1146,-1292,445,1982
1114,480,-23,-838,409,226,-1108,-1080,-1144,-1290,455,1994
1111,487,-13,-840,402,234,-1110,-1079,-1139,-1292,460,1997
1126,496,-19,-852,413,236,-1115,-1080,-1132,-1290,461,1998
1136,506,-19,-862,418,241,-1121,-1086,-1134,-1290,461,1995
1135,497,-27,-857,421,232,-1121,-1089,-1140,-1291,459,1993
1126,498,-17,-853,412,238,-1122,-1088,-1142,-1285,465,1998
1130,497,-22,-855,416,235,-1128,-1090,-1142,-1279,471,2005
1142,500,-31,-862,427,232,-1138,-1092,-1144,-1276,471,2007
1147,508,-28,-869,428,237,-1146,-1095,-1148,-1277,469,2006
1153,509,-33,-872,433,235,-1148,-1096,-1151,-1279,464,2002
1154,491,-52,-864,443,217,-1143,-1095,-1152,-1281,457,1994
1149,471,-67,-851,448,199,-1137,-1097,-1156,-1285,454,1991
1146,459,-76,-844,451,189,-1136,-1103,-1166,-1299,450,1985
1152,455,-86,-845,459,182,-1132,-1103,-1169,-1306,448,1983
1158,465,-82,-853,460,189,-1130,-1101,-1167,-1307,455,1992
1156,468,-77,-853,457,193,-1123,-1097,-1163,-1306,462,1999
1127,468,-48,-839,428,207,-1110,-1093,-1162,-1305,466,2002
1115,468,-36,-833,416,213,-1105,-1099,-1169,-1312,461,1996
1120,472,-37,-837,419,215,-1104,-1104,-1176,-1319,454,1988
1115,474,-30,-836,413,219,-1098,-1102,-1175,-1318,458,1992
1108,469,-28,-830,408,218,-1091,-1097,-1173,-1318,455,1986
1121,457,-53,-830,427,199,-1090,-1097,-1174,-1322,441,1971
1108,432,-65,-811,427,181,-1088,-1101,-1181,-1328,429,1955
1094,436,-47,-806,411,192,-1088,-1105,-1185,-1331,436,1961
1082,446,-25,-805,394,208,-1083,-1098,-1179,-1325,451,1973
1080,446,-23,-804,392,209,-1077,-1089,-1169,-1318,454,1977
1105,440,-54,-814,420,190,-1078,-1089,-1169,-1320,444,1971
1114,439,-64,-818,429,185,-1084,-1097,-1176,-1329,437,1963
1105,451,-43,-819,414,201,-1089,-1103,-1183,-1337,434,1954
1099,470,-18,-826,399,223,-1088,-1100,-1181,-1335,439,1958
1091,478,-2,-826,387,235,-1089,-1096,-1179,-1334,433,1953
1096,477,-8,-828,392,232,-1087,-1092,-1181,-1340,415,1932
1089,466,-12,-819,391,224,-1072,-1077,-1176,-1341,402,1916
1069,461,3,-806,373,229,-1053,-1062,-1167,-1337,402,1915
1054,454,11,-795,362,230,-1037,-1053,-1158,-1331,407,1913
1062,453,2,-799,370,225,-1028,-1034,-1140,-1314,413,1912
1080,462,-7,-812,384,225,-1024,-1006,-1105,-1275,437,1929
1123,512,0,-859,402,253,-1036,-976,-1050,-1207,485,1968
1184,564,-9,-915,437,275,-1066,-932,-969,-1114,542,2015
1252,627,-14,-981,473,304,-1112,-890,-883,-1010,621,2096
1333,677,-45,-1046,529,314,-1163,-854,-811,-923,688,2169
1419,681,-127,-1091,613,275,-1208,-815,-750,-858,724,2222
1415,673,-131,-1085,613,269,-1231,-845,-758,-860,725,2247
1364,680,-73,-1063,559,301,-1244,-957,-872,-963,696,2235
1284,628,-45,-997,505,289,-1207,-1032,-1007,-1111,635,2179
1206,480,-115,-884,501,180,-1109,-1005,-1080,-1241,513,2058
1182,399,-172,-832,517,111,-1047,-971,-1101,-1303,439,1979
1151,384,-156,-809,494,111,-1037,-992,-1122,-1325,431,1962
1131,410,-110,-812,461,147,-1046,-1027,-1145,-1341,433,1959
1133,447,-75,-831,444,183,-1069,-1057,-1169,-1360,431,1956
1147,450,-86,-840,457,179,-1084,-1081,-1185,-1372,417,1938
1126,429,-86,-819,446,169,-1083,-1091,-1186,-1370,416,1928
1095,437,-47,-807,411,192,-1070,-1079,-1169,-1352,432,1936
1077,452,-14,-806,386,216,-1060,-1070,-1158,-1341,436,1940
1085,447,-27,-807,396,207,-1065,-1076,-1163,-1345,437,1941
1071,438,-22,-796,387,205,-1063,-1076,-1162,-1343,443,1945
1089,457,-21,-814,395,215,-1058,-1068,-1156,-1336,446,1951
1114,484,-19,-840,407,230,-1057,-1066,-1152,-1334,445,1949
1112,466,-35,-830,414,213,-1058,-1067,-1154,-1334,447,1949
1096,458,-27,-818,402,213,-1057,-1069,-1156,-1336,447,1949
1098,473,-14,-827,396,227,-1062,-1071,-1158,-1337,443,1949
1094,461,-22,-819,398,217,-1061,-1070,-1157,-1335,446,1951
1097,464,-22,-822,400,218,-1066,-1073,-1159,-1335,448,1949
1104,465,-28,-826,406,216,-1070,-1074,-1160,-1335,448,1947
1109,459,-39,-825,414,207,-1075,-1080,-1166,-1339,435,1937
1106,463,-32,-826,409,213,-1073,-1078,-1166,-1336,433,1934
1103,459,-33,-822,408,210,-1072,-1075,-1162,-1330,444,1952
1098,447,-40,-814,409,201,-1072,-1074,-1160,-1326,455,1962
1083,443,-29,-804,396,204,-1073,-1075,-1160,-1324,466,1971
1094,466,-17,-821,396,222,-1075,-1076,-1161,-1321,472,1977
1105,476,-18,-832,402,226,-1075,-1076,-1159,-1315,469,1980
1101,469,-21,-826,401,221,-1075,-1078,-1158,-1313,454,1967
1106,467,-28,-828,407,217,-1076,-1079,-1155,-1308,448,1962
1114,465,-38,-831,416,211,-1079,-1082,-1152,-1302,450,1962
1111,465,-35,-829,413,212,-1082,-1089,-1152,-1299,451,1961
1114,468,-35,-832,415,214,-1083,-1091,-1149,-1292,452,1962
1111,469,-31,-831,411,216,-1082,-1091,-1143,-1283,454,1963
1110,463,-36,-828,413,211,-1083,-1091,-1137,-1276,450,1957
1126,472,-43,-840,425,212,-1086,-1095,-1134,-1271,440,1947
1140,461,-68,-842,444,194,-1091,-1096,-1132,-1268,433,1944
1122,435,-76,-820,439,177,-1085,-1091,-1122,-1264,436,1948
1101,432,-58,-808,420,184,-1075,-1078,-1106,-1255,454,1965
1113,438,-64,-817,429,184,-1074,-1072,-1097,-1249,472,1980
1121,437,-73,-820,437,179,-1071,-1064,-1088,-1245,482,1989
1116,415,-90,-807,443,160,-1064,-1049,-1074,-1234,497,2003
1119,367,-141,-784,470,110,-1056,-1034,-1059,-1222,508,2012
1117,303,-203,-751,500,47,-1042,-1016,-1040,-1204,523,2023
1139,247,-281,-734,550,-20,-1030,-996,-1015,-1181,545,2044
1153,231,-311,-733,572,-43,-1021,-982,-997,-1164,551,2046
1137,237,-289,-728,553,-29,-1018,-971,-984,-1150,555,2048
1138,253,-274,-737,546,-13,-1021,-966,-976,-1142,555,2047
1140,274,-255,-748,538,7,-1026,-962,-971,-1136,557,2046
1135,281,-243,-749,529,16,-1035,-962,-969,-1134,558,2042
1130,283,-236,-748,523,21,-1042,-960,-966,-1133,558,2041
1153,302,-240,-769,537,28,-1038,-947,-953,-1123,567,2047
1173,323,-239,-789,546,39,-1039,-938,-941,-1114,584,2059
1163,327,-225,-786,534,48,-1046,-937,-940,-1113,589,2060
1154,333,-210,-785,522,59,-1053,-940,-943,-1117,584,2053
1176,361,-204,-810,530,76,-1064,-946,-948,-1124,577,2045
1187,373,-203,-821,535,82,-1070,-951,-960,-1135,567,2035
1196,396,-189,-837,533,101,-1080,-959,-971,-1149,557,2028
1187,411,-165,-840,516,120,-1085,-965,-980,-1159,555,2030
1186,421,-154,-845,510,131,-1094,-979,-1002,-1178,544,2019
1188,441,-136,-856,502,150,-1101,-994,-1031,-1199,535,2009
1195,467,-117,-872,496,172,-1108,-1013,-1059,-1223,526,1999
1193,490,-92,-883,483,196,-1117,-1035,-1091,-1253,510,1986
1183,492,-80,-879,472,203,-1129,-1061,-1126,-1288,487,1969
1173,502,-60,-879,457,218,-1135,-1080,-1154,-1319,469,1955
1164,529,-24,-888,434,250,-1134,-1092,-1175,-1342,462,1951
1151,541,1,-887,415,268,-1132,-1105,-1192,-1366,449,1942
1141,546,16,-885,403,278,-1136,-1120,-1205,-1393,434,1933
1148,561,24,-896,402,290,-1141,-1132,-1213,-1413,423,1923
1153,568,26,-902,404,294,-1144,-1143,-1225,-1429,411,1913
1146,574,39,-901,394,304,-1142,-1146,-1236,-1442,405,1907
1128,557,40,-884,384,296,-1130,-1140,-1235,-1444,412,1915
1140,545,16,-884,402,278,-1128,-1141,-1239,-1450,414,1919
1144,542,9,-884,408,273,-1127,-1145,-1246,-1457,411,1918
1130,538,19,-875,396,276,-1126,-1147,-1254,-1463,407,1913
1123,549,37,-877,383,290,-1133,-1154,-1268,-1474,395,1899
1133,584,62,-900,376,320,-1143,-1162,-1285,-1479,389,1894
1132,612,91,-913,361,349,-1149,-1170,-1301,-1482,381,1887
1129,634,116,-923,347,372,-1155,-1176,-1308,-1483,370,1877
1140,638,109,-930,356,371,-1164,-1183,-1304,-1483,361,1866
1128,629,112,-920,348,368,-1150,-1167,-1276,-1464,367,1870
1115,613,109,-905,343,358,-1129,-1143,-1244,-1433,389,1892
1131,583,63,-898,374,320,-1125,-1136,-1228,-1419,391,1894
1139,550,22,-886,399,283,-1119,-1128,-1211,-1405,395,1897
1149,529,-9,-880,419,257,-1117,-1122,-1197,-1392,400,1900
1118,511,4,-856,397,255,-1106,-1113,-1180,-1377,404,1903
1120,499,-10,-851,405,242,-1107,-1112,-1171,-1372,398,1900
1119,484,-24,-843,412,227,-1105,-1110,-1162,-1366,406,1908
1116,473,-32,-836,414,218,-1101,-1109,-1156,-1361,414,1910
1122,470,-41,-837,422,212,-1099,-1108,-1151,-1358,421,1914
1131,472,-48,-843,430,209,-1100,-1111,-1151,-1359,422,1915
1139,466,-62,-844,441,199,-1100,-1112,-1151,-1359,425,1918
1140,462,-67,-842,444,195,-1092,-1103,-1140,-1352,435,1928
1131,461,-59,-837,435,198,-1090,-1100,-1135,-1351,431,1923
1145,463,-71,-845,448,193,-1098,-1109,-1146,-1359,417,1910
1140,455,-74,-839,447,188,-1099,-1111,-1154,-1362,418,1912
1130,464,-55,-838,433,202,-1094,-1106,-1157,-1358,429,1921
1132,468,-53,-841,433,205,-1093,-1106,-1165,-1358,431,1920
1128,462,-55,-836,432,201,-1094,-1109,-1179,-1363,431,1919
1123,459,-53,-832,428,200,-1094,-1110,-1191,-1365,436,1923
1125,473,-41,-840,423,213,-1083,-1100,-1194,-1356,448,1935
1126,477,-38,-843,422,217,-1077,-1096,-1200,-1354,451,1937
1132,474,-47,-844,430,211,-1083,-1103,-1213,-1362,435,1923
1142,459,-72,-842,447,191,-1090,-1110,-1224,-1369,419,1912
1134,463,-60,-840,437,199,-1089,-1109,-1221,-1366,423,1915
1124,453,-60,-830,432,194,-1087,-1108,-1215,-1362,420,1912
1121,460,-50,-832,426,202,-1082,-1104,-1208,-1358,418,1912
1139,470,-58,-846,439,203,-1081,-1100,-1193,-1353,422,1915
1135,456,-68,-837,442,191,-1088,-1106,-1187,-1356,423,1916
1130,456,-63,-834,437,194,-1086,-1105,-1176,-1355,430,1919
1135,468,-56,-843,436,203,-1079,-1100,-1166,-1348,432,1919
1123,467,-45,-836,424,208,-1073,-1094,-1163,-1340,433,1923
1120,462,-47,-832,424,205,-1072,-1093,-1158,-1336,427,1918
1136,465,-60,-842,438,200,-1080,-1100,-1155,-1338,421,1914
1140,468,-61,-845,441,201,-1087,-1107,-1155,-1341,416,1910
1129,454,-64,-833,437,192,-1085,-1106,-1148,-1341,415,1912
1113,449,-53,-822,423,195,-1080,-1100,-1136,-1339,410,1907
1137,460,-66,-840,442,194,-1082,-1099,-1132,-1338,407,1909
1153,466,-76,-851,455,192,-1083,-1096,-1129,-1332,415,1920
1139,468,-60,-845,440,201,-1079,-1088,-1123,-1320,426,1933
1143,468,-64,-847,444,199,-1083,-1087,-1124,-1315,440,1945
1157,471,-75,-855,456,195,-1093,-1092,-1129,-1317,440,1942
1149,468,-70,-850,450,196,-1087,-1087,-1129,-1311,433,1939
1142,476,-55,-850,439,208,-1085,-1083,-1131,-1303,434,1943
1150,483,-56,-858,443,211,-1088,-1083,-1139,-1300,435,1943
1148,478,-59,-854,444,207,-1096,-1089,-1149,-1303,444,1946
1151,481,-59,-857,445,208,-1101,-1093,-1155,-1307,449,1952
1147,488,-48,-859,438,217,-1106,-1095,-1161,-1309,453,1960
1166,500,-55,-874,451,220,-1114,-1098,-1166,-1312,456,1965
1179,513,-55,-887,457,226,-1123,-1096,-1167,-1313,453,1965
1176,517,-48,-888,452,232,-1127,-1091,-1166,-1311,450,1969
1171,512,-48,-883,450,229,-1140,-1102,-1178,-1318,451,1970
1180,515,-54,-889,457,228,-1143,-1107,-1185,-1324,449,1967
1179,495,-73,-878,466,208,-1135,-1106,-1191,-1329,443,1964
1182,484,-87,-874,475,196,-1136,-1111,-1201,-1340,429,1954
1170,485,-74,-869,462,203,-1133,-1113,-1204,-1342,430,1955
1160,486,-63,-864,452,209,-1130,-1112,-1200,-1338,445,1963
1183,498,-74,-882,469,209,-1130,-1112,-1199,-1340,442,1955
1179,514,-54,-888,457,227,-1112,-1100,-1188,-1333,442,1955
1152,513,-28,-874,430,240,-1098,-1093,-1179,-1325,448,1959
1157,502,-44,-871,441,226,-1102,-1099,-1184,-1330,435,1946
1141,477,-53,-850,437,209,-1102,-1105,-1189,-1335,423,1939
1123,457,-55,-831,429,198,-1094,-1101,-1187,-1333,420,1937
1128,465,-52,-838,430,204,-1086,-1090,-1177,-1323,435,1946
1144,470,-63,-848,444,201,-1084,-1083,-1172,-1320,438,1945
1145,467,-67,-847,446,197,-1080,-1079,-1170,-1320,436,1944
1127,453,-63,-831,435,192,-1080,-1082,-1174,-1325,432,1936
1135,472,-52,-845,434,207,-1085,-1086,-1175,-1324,440,1943
1128,469,-48,-840,428,208,-1086,-1091,-1180,-1328,439,1941
1121,457,-53,-830,427,199,-1083,-1092,-1181,-1333,430,1933
1119,457,-51,-829,425,200,-1082,-1088,-1178,-1334,428,1931
1113,457,-45,-826,419,203,-1079,-1085,-1177,-1335,429,1934
1112,456,-45,-825,419,203,-1075,-1083,-1176,-1336,431,1934
1124,453,-60,-830,432,194,-1076,-1082,-1179,-1341,422,1922
1113,434,-68,-815,431,180,-1063,-1070,-1176,-1345,410,1906
1106,429,-66,-809,426,179,-1045,-1056,-1170,-1343,400,1890
1096,444,-41,-811,409,199,-1025,-1044,-1160,-1333,405,1889
1101,446,-44,-815,413,198,-1011,-1025,-1140,-1314,410,1892
1112,442,-59,-818,426,189,-1009,-1009,-1120,-1290,419,1898
1129,461,-57,-836,433,199,-1010,-988,-1079,-1242,450,1922
1191,531,-49,-902,460,238,-1032,-953,-1011,-1160,511,1974
1266,605,-50,-977,498,275,-1079,-923,-940,-1068,587,2048
1340,661,-68,-1042,544,294,-1134,-902,-881,-985,663,2131
1422,687,-124,-1095,613,279,-1186,-880,-832,-924,708,2189
1471,693,-167,-1123,659,261,-1225,-877,-810,-894,726,2223
1427,700,-116,-1104,612,290,-1242,-945,-863,-935,723,2237
1332,677,-44,-1046,528,314,-1229,-1036,-988,-1059,693,2220
1256,551,-94,-945,515,226,-1157,-1045,-1084,-1198,575,2104
1220,410,-199,-856,550,103,-1074,-991,-1110,-1282,446,1975
1198,377,-210,-829,544,81,-1039,-977,-1116,-1302,418,1941
1190,398,-181,-835,526,106,-1036,-1006,-1137,-1314,427,1941
1178,412,-155,-836,507,126,-1052,-1039,-1162,-1331,431,1940
1160,411,-138,-827,489,134,-1073,-1074,-1192,-1353,422,1927
1146,407,-128,-818,477,137,-1073,-1087,-1202,-1356,427,1923
1135,414,-110,-816,463,149,-1066,-1084,-1196,-1348,440,1926
1124,409,-104,-808,454,150,-1057,-1078,-1187,-1341,446,1927
1128,412,-105,-811,457,151,-1056,-1075,-1184,-1339,447,1926
1123,414,-98,-810,451,155,-1056,-1076,-1184,-1341,446,1925
1111,401,-99,-797,445,148,-1056,-1077,-1186,-1346,447,1927
1118,400,-107,-800,453,144,-1059,-1077,-1184,-1351,447,1927
1122,396,-115,-800,459,138,-1057,-1076,-1181,-1353,446,1926
1124,397,-116,-802,460,138,-1051,-1070,-1168,-1343,449,1930
1131,400,-120,-807,466,137,-1053,-1072,-1158,-1337,450,1931
1112,382,-119,-788,456,129,-1054,-1077,-1162,-1338,446,1927
1114,389,-114,-793,454,135,-1052,-1075,-1157,-1335,449,1930
1121,406,-104,-805,453,148,-1046,-1066,-1144,-1326,459,1939
1124,417,-96,-812,450,158,-1042,-1062,-1136,-1323,461,1942
1133,428,-94,-822,454,164,-1040,-1059,-1129,-1320,465,1947
1121,432,-78,-818,440,174,-1040,-1059,-1128,-1318,472,1954
1121,421,-89,-812,445,163,-1047,-1065,-1137,-1326,466,1947
1129,423,-95,-817,452,161,-1056,-1071,-1145,-1334,463,1945
1118,424,-83,-812,441,168,-1055,-1067,-1144,-1332,464,1945
1106,435,-60,-812,423,185,-1052,-1061,-1138,-1327,473,1954
1125,431,-83,-819,444,171,-1060,-1061,-1141,-1329,475,1957
1121,426,-84,-815,443,168,-1066,-1061,-1142,-1328,476,1957
1108,425,-72,-808,430,174,-1068,-1058,-1143,-1325,475,1954
1111,428,-72,-811,432,175,-1069,-1059,-1145,-1325,473,1953
1126,437,-78,-823,442,177,-1075,-1060,-1146,-1325,475,1955
1120,436,-73,-819,437,179,-1076,-1062,-1148,-1326,479,1957
1109,428,-70,-810,430,176,-1072,-1062,-1147,-1326,476,1953
1125,428,-86,-818,446,168,-1075,-1064,-1147,-1325,475,1950
1126,428,-87,-818,447,168,-1068,-1058,-1140,-1315,478,1953
1127,438,-78,-824,443,177,-1063,-1052,-1131,-1305,485,1958
1123,439,-73,-822,438,180,-1056,-1048,-1125,-1300,488,1962
1117,442,-64,-821,431,186,-1050,-1042,-1116,-1292,491,1966
1129,448,-70,-830,440,186,-1050,-1040,-1108,-1285,490,1965
1131,445,-75,-829,443,182,-1050,-1039,-1102,-1279,488,1962
1130,442,-77,-827,444,180,-1045,-1035,-1091,-1269,491,1966
1140,446,-83,-834,452,179,-1043,-1029,-1080,-1259,496,1970
1151,450,-90,-842,461,177,-1042,-1026,-1073,-1252,498,1971
1150,451,-88,-842,459,179,-1044,-1026,-1069,-1247,498,1970
1149,450,-88,-841,459,178,-1045,-1021,-1061,-1238,498,1969
1156,458,-87,-848,462,183,-1042,-1009,-1047,-1223,505,1975
1168,463,-94,-857,471,182,-1046,-1003,-1039,-1213,505,1973
1167,468,-88,-859,468,187,-1051,-1001,-1034,-1207,503,1969
1160,476,-73,-859,457,199,-1054,-994,-1025,-1196,507,1974
1164,481,-72,-864,458,202,-1057,-985,-1014,-1184,518,1985
1173,492,-70,-874,462,208,-1057,-974,-1002,-1170,533,1998
1192,503,-78,-889,475,210,-1065,-969,-996,-1162,539,2004
1197,507,-79,-893,478,211,-1070,-966,-996,-1157,539,2002
1182,508,-63,-886,463,220,-1073,-963,-995,-1150,542,2007
1180,511,-58,-887,459,224,-1077,-961,-997,-1147,541,2005
1184,515,-58,-891,461,226,-1078,-958,-999,-1143,538,2002
1195,510,-74,-894,475,215,-1083,-960,-1004,-1147,528,1994
1193,509,-73,-892,473,215,-1093,-971,-1014,-1157,520,1989
1179,510,-58,-886,459,223,-1091,-976,-1022,-1164,522,1992
1179,525,-43,-893,451,238,-1091,-981,-1034,-1170,525,1997
1186,531,-44,-900,455,241,-1094,-993,-1049,-1185,516,1991
1174,518,-45,-887,450,234,-1093,-1005,-1061,-1204,501,1979
1163,508,-44,-877,444,229,-1094,-1019,-1064,-1223,492,1974
1152,496,-45,-865,439,223,-1098,-1033,-1069,-1243,478,1964
1147,487,-49,-858,438,216,-1098,-1041,-1079,-1257,474,1963
1146,481,-54,-855,440,211,-1099,-1049,-1086,-1269,475,1968
1145,481,-53,-854,439,211,-1096,-1052,-1085,-1274,478,1972
1144,475,-58,-851,441,206,-1097,-1059,-1093,-1281,474,1967
1135,461,-63,-839,439,196,-1094,-1062,-1106,-1285,469,1963
1125,444,-70,-826,438,184,-1089,-1064,-1114,-1286,465,1962
1122,438,-73,-821,438,180,-1087,-1067,-1120,-1288,462,1962
1125,446,-68,-827,437,186,-1089,-1070,-1126,-1293,456,1956
1132,459,-62,-837,437,196,-1085,-1067,-1125,-1295,453,1954
1139,465,-63,-843,441,198,-1083,-1066,-1125,-1295,454,1958
1136,461,-64,-840,440,196,-1082,-1066,-1127,-1297,455,1960
1120,455,-54,-829,427,198,-1080,-1067,-1130,-1298,461,1962
1116,452,-53,-825,425,197,-1084,-1072,-1137,-1302,467,1968
1123,451,-61,-828,432,192,-1086,-1078,-1143,-1307,465,1972
1125,451,-63,-829,434,191,-1085,-1079,-1145,-1308,460,1967
1118,460,-47,-830,423,204,-1073,-1069,-1138,-1301,458,1968
1127,470,-46,-840,427,209,-1071,-1067,-1139,-1300,459,1973
1128,471,-46,-841,427,210,-1078,-1079,-1150,-1308,459,1974
1108,462,-35,-826,412,211,-1075,-1083,-1153,-1310,457,1969
1117,463,-43,-831,420,207,-1073,-1080,-1152,-1307,457,1973
1134,467,-56,-842,435,203,-1080,-1087,-1158,-1313,453,1971
1141,463,-67,-843,444,195,-1082,-1089,-1159,-1315,449,1969
1114,453,-50,-825,422,199,-1074,-1086,-1157,-1313,453,1972
1097,449,-37,-814,407,203,-1064,-1084,-1154,-1310,451,1967
1124,454,-59,-830,432,195,-1068,-1086,-1155,-1312,452,1970
1118,457,-50,-829,424,201,-1064,-1084,-1151,-1307,462,1986
1113,464,-38,-830,416,210,-1060,-1080,-1146,-1301,461,1987
1114,465,-38,-831,416,211,-1059,-1078,-1145,-1303,452,1977
1127,478,-38,-844,423,217,-1061,-1079,-1148,-1308,446,1975
1137,482,-44,-851,431,216,-1067,-1082,-1154,-1315,447,1978
1127,474,-42,-842,425,213,-1073,-1089,-1162,-1323,449,1977
1126,460,-55,-834,431,200,-1081,-1097,-1174,-1334,431,1957
1142,475,-56,-850,439,207,-1080,-1092,-1174,-1336,419,1953
1148,487,-50,-859,439,216,-1077,-1087,-1171,-1334,433,1968
1114,466,-37,-831,416,212,-1074,-1082,-1170,-1333,452,1979
1100,455,-34,-819,407,208,-1074,-1078,-1175,-1336,462,1981
1119,459,-49,-830,424,202,-1072,-1072,-1176,-1338,466,1988
1118,466,-41,-833,420,210,-1070,-1071,-1180,-1342,465,1988
1117,472,-34,-836,416,216,-1068,-1073,-1186,-1351,455,1980
1118,470,-37,-835,418,214,-1065,-1066,-1181,-1347,454,1982
1105,458,-36,-823,411,208,-1062,-1062,-1177,-1343,463,1989
1110,461,-38,-827,414,209,-1060,-1064,-1177,-1345,470,1990
1124,467,-46,-837,425,208,-1058,-1065,-1174,-1349,468,1986
1117,474,-32,-837,415,218,-1053,-1063,-1170,-1350,463,1984
1115,467,-37,-832,416,212,-1048,-1059,-1165,-1351,451,1973
1097,460,-26,-820,402,214,-1039,-1053,-1157,-1347,455,1973
1105,462,-32,-825,409,212,-1043,-1057,-1155,-1348,454,1966
1130,466,-53,-839,432,204,-1047,-1061,-1154,-1350,442,1955
1142,462,-69,-843,446,194,-1052,-1069,-1156,-1357,435,1953
1121,449,-61,-826,431,191,-1050,-1073,-1152,-1358,450,1965
1100,459,-30,-821,405,212,-1035,-1060,-1135,-1343,469,1981
1114,476,-27,-836,411,222,-1031,-1056,-1128,-1336,475,1988
1113,470,-32,-833,413,216,-1035,-1058,-1126,-1333,484,2000
1114,486,-17,-841,406,232,-1034,-1055,-1121,-1328,496,2008
1121,492,-18,-848,410,234,-1043,-1059,-1124,-1329,493,2003
1130,498,-21,-855,416,236,-1049,-1059,-1122,-1324,483,1997
1130,490,-29,-851,420,228,-1049,-1057,-1121,-1322,467,1979
1131,495,-25,-854,418,232,-1055,-1060,-1122,-1323,459,1967
1145,500,-34,-864,430,230,-1068,-1067,-1125,-1325,453,1968
1162,508,-43,-876,443,230,-1077,-1070,-1126,-1324,449,1970
1158,516,-31,-878,435,240,-1080,-1070,-1126,-1320,466,1982
1156,510,-35,-874,436,235,-1087,-1071,-1126,-1315,491,2000
1162,517,-34,-881,438,239,-1099,-1076,-1128,-1312,502,2006
1161,516,-34,-880,438,238,-1106,-1078,-1133,-1313,498,2005
1158,514,-33,-877,436,238,-1108,-1077,-1134,-1311,497,2008
1154,507,-36,-872,435,233,-1108,-1082,-1142,-1318,484,1996
1169,499,-59,-875,454,217,-1111,-1085,-1149,-1323,477,1994
1174,490,-73,-873,464,206,-1109,-1087,-1154,-1327,464,1985
1179,482,-86,-872,473,195,-1109,-1090,-1157,-1330,455,1977
1188,482,-95,-876,482,191,-1109,-1090,-1156,-1329,450,1971
1175,481,-83,-869,469,196,-1099,-1085,-1147,-1321,449,1967
1153,480,-62,-858,448,206,-1088,-1085,-1143,-1316,450,1967
1142,477,-54,-851,438,209,-1081,-1091,-1144,-1314,452,1967
1137,467,-59,-843,438,201,-1076,-1095,-1144,-1311,448,1963
1138,459,-68,-840,443,193,-1074,-1096,-1142,-1310,450,1967
1135,448,-76,-833,446,183,-1065,-1091,-1135,-1306,448,1964
1113,439,-63,-817,428,185,-1055,-1086,-1129,-1307,437,1951
1106,427,-68,-808,427,177,-1050,-1083,-1127,-1311,428,1942
1120,417,-92,-810,446,160,-1054,-1085,-1119,-1319,423,1935
1127,415,-101,-812,454,154,-1052,-1084,-1107,-1321,429,1937
1109,400,-98,-796,444,148,-1042,-1073,-1101,-1315,440,1947
1104,390,-103,-788,444,141,-1034,-1063,-1097,-1308,450,1956
1115,366,-138,-782,467,111,-1025,-1051,-1089,-1298,460,1966
1108,319,-178,-755,483,68,-1007,-1035,-1078,-1283,472,1977
1110,269,-230,-731,510,17,-994,-1022,-1067,-1270,480,1984
1121,234,-276,-719,539,-24,-984,-1012,-1058,-1259,489,1992
1099,202,-286,-692,533,-45,-970,-1001,-1048,-1255,487,1985
1099,188,-300,-685,540,-59,-959,-995,-1050,-1263,468,1960
1092,195,-286,-685,529,-48,-945,-988,-1052,-1267,460,1948
1074,216,-247,-686,501,-18,-926,-974,-1044,-1263,464,1943
1082,245,-226,-705,494,7,-922,-962,-1030,-1254,467,1935
1097,270,-216,-725,497,24,-923,-943,-1005,-1228,484,1948
1114,316,-187,-756,491,62,-928,-910,-950,-1169,524,1983
1197,383,-203,-831,540,87,-962,-870,-877,-1086,576,2030
1272,468,-193,-911,573,135,-1013,-831,-797,-984,662,2115
1344,550,-183,-988,604,181,-1067,-794,-721,-890,745,2204
1434,601,-222,-1059,668,187,-1123,-772,-671,-831,791,2262
1445,606,-228,-1067,677,187,-1156,-794,-666,-823,805,2295
1378,611,-156,-1036,607,225,-1171,-888,-762,-902,785,2291
1291,574,-106,-974,539,232,-1159,-986,-919,-1051,723,2240
1240,440,-189,-881,555,123,-1090,-996,-1031,-1206,572,2094
1216,350,-255,-824,576,45,-1027,-969,-1075,-1298,454,1977
1185,348,-226,-808,546,58,-1010,-976,-1098,-1330,425,1944
1162,372,-179,-808,511,94,-1020,-1016,-1132,-1362,409,1924
1154,405,-138,-821,486,131,-1046,-1057,-1168,-1391,399,1914
1163,448,-104,-847,474,169,-1074,-1079,-1190,-1403,402,1914
1159,471,-77,-856,458,194,-1079,-1085,-1198,-1404,407,1910
1139,468,-60,-845,440,201,-1073,-1083,-1200,-1408,408,1907
1132,462,-59,-838,436,199,-1071,-1084,-1206,-1414,403,1901
1128,456,-61,-833,435,195,-1076,-1092,-1217,-1424,395,1892
1136,459,-66,-839,441,194,-1082,-1101,-1228,-1431,388,1887
1135,477,-47,-847,431,212,-1074,-1096,-1227,-1424,398,1899
1136,496,-29,-857,423,231,-1070,-1093,-1224,-1419,405,1904
1120,493,-16,-848,408,236,-1068,-1092,-1228,-1419,405,1903
1120,502,-7,-852,404,245,-1070,-1094,-1235,-1419,403,1902
1141,517,-13,-870,417,249,-1075,-1099,-1241,-1422,396,1894
1140,536,7,-879,407,269,-1075,-1100,-1241,-1420,390,1887
1145,554,20,-891,403,284,-1082,-1106,-1253,-1422,382,1876
1141,562,32,-893,395,294,-1089,-1112,-1261,-1423,381,1873
1134,581,58,-899,378,317,-1097,-1117,-1247,-1423,381,1870
1127,592,76,-901,366,331,-1098,-1117,-1230,-1418,385,1873
1131,573,53,-893,379,310,-1099,-1119,-1219,-1414,382,1871
1127,552,36,-881,386,291,-1093,-1113,-1202,-1405,382,1869
1137,525,-1,-872,409,259,-1088,-1106,-1186,-1395,378,1865
1143,507,-25,-866,424,238,-1080,-1098,-1169,-1385,380,1866
1132,498,-23,-856,418,235,-1073,-1090,-1152,-1377,379,1866
1129,493,-25,-852,417,231,-1057,-1073,-1125,-1357,396,1884
1143,493,-39,-859,431,224,-1052,-1066,-1111,-1346,419,1904
1142,485,-46,-855,434,217,-1054,-1066,-1109,-1344,436,1914
1144,473,-60,-850,442,204,-1059,-1068,-1112,-1343,446,1917
1158,472,-75,-856,457,196,-1067,-1077,-1121,-1350,442,1912
1150,475,-64,-854,447,203,-1063,-1077,-1123,-1352,436,1908
1125,472,-42,-840,424,212,-1056,-1068,-1120,-1347,432,1908
1154,485,-58,-861,446,211,-1059,-1063,-1118,-1341,432,1911
1156,490,-55,-864,446,215,-1061,-1062,-1118,-1340,435,1913
1166,490,-65,-869,456,210,-1063,-1063,-1121,-1343,437,1912
1167,490,-66,-870,457,209,-1062,-1060,-1121,-1341,440,1912
1151,485,-55,-859,443,212,-1057,-1054,-1121,-1336,437,1909
1157,490,-56,-865,447,214,-1061,-1054,-1126,-1334,433,1907
1162,489,-62,-867,452,211,-1064,-1056,-1132,-1334,431,1905
1168,487,-70,-869,459,206,-1070,-1058,-1136,-1331,440,1911
1169,486,-72,-869,461,204,-1074,-1060,-1138,-1328,451,1917
1176,491,-74,-875,465,206,-1070,-1050,-1134,-1317,458,1926
1177,495,-71,-877,464,209,-1067,-1039,-1128,-1305,464,1932
1175,495,-69,-876,462,210,-1068,-1033,-1119,-1294,470,1938
1173,499,-63,-877,458,215,-1071,-1028,-1113,-1286,473,1939
1184,501,-72,-884,468,212,-1072,-1022,-1100,-1278,468,1934
1184,493,-80,-880,472,204,-1077,-1020,-1082,-1275,456,1924
1195,491,-93,-884,484,196,-1080,-1015,-1056,-1264,459,1927
1214,506,-97,-901,496,202,-1084,-1011,-1039,-1257,469,1933
1215,518,-86,-908,491,213,-1088,-1006,-1027,-1249,476,1939
1203,522,-70,-904,477,223,-1086,-995,-1013,-1236,489,1953
1205,529,-65,-908,475,229,-1087,-990,-1002,-1225,499,1960
1204,520,-73,-903,479,221,-1091,-995,-1003,-1224,489,1952
1220,517,-92,-910,496,210,-1099,-1001,-1010,-1228,471,1941
1232,518,-103,-916,508,205,-1102,-1001,-1011,-1226,464,1939
1234,524,-99,-920,507,210,-1096,-995,-1008,-1219,475,1946
1242,534,-97,-929,510,216,-1096,-999,-1017,-1220,485,1956
1242,528,-103,-926,513,210,-1098,-1009,-1031,-1227,486,1957
1234,527,-96,-922,505,213,-1096,-1015,-1040,-1233,491,1965
1222,519,-92,-912,497,211,-1101,-1029,-1059,-1249,485,1963
1202,502,-89,-893,486,204,-1101,-1045,-1081,-1269,469,1954
1207,500,-96,-895,492,199,-1099,-1054,-1098,-1282,464,1956
1210,501,-98,-897,494,199,-1092,-1057,-1110,-1290,463,1960
1200,495,-94,-889,487,198,-1087,-1061,-1119,-1300,456,1955
1178,490,-77,-875,468,204,-1083,-1064,-1128,-1309,452,1952
1177,482,-84,-871,471,196,-1082,-1071,-1142,-1321,447,1944
1189,477,-101,-874,485,185,-1085,-1078,-1153,-1331,439,1937
1195,478,-106,-878,491,183,-1084,-1079,-1157,-1334,439,1942
1192,478,-103,-876,488,185,-1081,-1079,-1162,-1334,447,1947
1165,479,-75,-863,460,199,-1076,-1078,-1167,-1335,452,1948
1144,472,-61,-849,443,203,-1074,-1079,-1172,-1340,448,1945
1158,474,-73,-857,456,198,-1073,-1076,-1172,-1342,440,1941
1168,472,-85,-861,467,191,-1071,-1077,-1175,-1348,433,1936
1185,480,-94,-874,480,190,-1071,-1077,-1177,-1351,430,1935
1187,483,-93,-876,480,192,-1073,-1079,-1178,-1352,432,1935
1177,470,-96,-865,477,184,-1076,-1082,-1177,-1355,425,1925
1159,468,-80,-855,460,191,-1074,-1081,-1171,-1351,422,1922
1163,458,-94,-852,469,179,-1073,-1081,-1168,-1349,417,1919
1169,455,-103,-853,476,173,-1076,-1082,-1168,-1348,419,1919
1151,458,-82,-846,457,185,-1073,-1079,-1160,-1340,436,1932
1140,447,-82,-835,451,180,-1073,-1082,-1159,-1339,442,1937
1152,458,-83,-846,458,185,-1077,-1082,-1157,-1340,443,1938
1166,472,-83,-860,465,192,-1076,-1077,-1151,-1336,444,1940
1168,478,-79,-864,464,197,-1076,-1077,-1148,-1337,442,1937
1169,471,-87,-861,468,189,-1076,-1074,-1142,-1335,438,1934
1170,467,-92,-860,471,185,-1072,-1064,-1124,-1316,454,1946
1165,469,-85,-858,465,189,-1059,-1047,-1097,-1285,472,1955
1156,506,-39,-872,438,231,-1050,-1017,-1042,-1216,523,1992
1156,545,0,-892,418,270,-1035,-975,-970,-1131,580,2028
1162,564,13,-904,415,286,-1014,-924,-900,-1057,608,2032
1171,574,14,-914,419,291,-983,-860,-827,-993,615,2022
1163,564,12,-905,416,285,-948,-800,-778,-974,579,1975
1149,552,14,-892,408,280,-930,-777,-785,-1018,513,1907
1137,545,19,-882,399,279,-925,-775,-818,-1086,454,1847
1131,473,-47,-843,429,210,-894,-734,-817,-1123,386,1770
1145,344,-190,-786,508,74,-844,-676,-803,-1149,290,1666
1189,276,-302,-774,586,-16,-848,-677,-840,-1201,236,1624
1212,271,-330,-783,611,-32,-885,-721,-903,-1258,220,1628
1221,272,-338,-788,620,-36,-913,-772,-957,-1297,221,1644
1210,281,-318,-787,604,-21,-925,-824,-999,-1313,242,1675
1158,334,-213,-787,526,58,-935,-892,-1035,-1316,295,1729
1113,412,-90,-804,442,158,-941,-939,-1033,-1276,380,1810
1093,473,-9,-824,391,229,-934,-936,-996,-1221,452,1875
1101,505,15,-844,383,257,-927,-911,-953,-1175,495,1912
1125,526,12,-867,397,266,-933,-890,-914,-1136,525,1942
1132,526,5,-870,404,263,-927,-870,-882,-1108,541,1959
1129,514,-4,-863,407,252,-910,-849,-862,-1100,534,1955
1135,493,-31,-855,423,228,-899,-834,-857,-1105,521,1949
1152,468,-73,-851,453,195,-907,-848,-888,-1141,499,1936
1159,441,-107,-841,473,164,-919,-872,-933,-1185,478,1926
1148,416,-121,-823,475,145,-938,-906,-980,-1226,470,1927
1155,408,-136,-823,486,133,-977,-965,-1047,-1280,463,1928
1170,403,-156,-828,503,121,-1021,-1025,-1110,-1328,458,1932
1177,410,-156,-835,507,124,-1047,-1060,-1143,-1352,468,1946
1165,412,-142,-830,494,132,-1063,-1084,-1165,-1369,480,1958
1162,412,-139,-828,491,134,-1077,-1102,-1178,-1381,483,1963
1170,410,-149,-831,500,128,-1084,-1105,-1180,-1383,483,1969
1176,406,-159,-832,508,121,-1092,-1112,-1184,-1389,477,1963
1197,419,-167,-849,522,123,-1094,-1109,-1179,-1386,477,1963
1194,426,-157,-851,516,132,-1089,-1102,-1168,-1375,486,1975
1194,443,-140,-860,507,149,-1089,-1099,-1160,-1369,492,1986
1189,446,-132,-859,501,154,-1093,-1102,-1158,-1369,495,1990
1193,443,-139,-859,506,149,-1097,-1106,-1158,-1369,498,1993
1192,442,-139,-858,506,149,-1102,-1111,-1161,-1371,499,1995
1179,454,-114,-858,487,167,-1101,-1111,-1157,-1367,512,2009
1180,456,-113,-859,487,169,-1111,-1120,-1161,-1373,509,2007
1187,459,-117,-864,492,168,-1126,-1130,-1168,-1383,502,2001
1181,466,-104,-865,483,178,-1129,-1129,-1167,-1384,510,2010
1166,469,-86,-859,466,189,-1133,-1130,-1166,-1385,517,2017
1184,480,-93,-873,479,191,-1139,-1133,-1166,-1383,521,2023
1198,493,-94,-887,486,197,-1142,-1135,-1165,-1378,531,2032
1196,483,-102,-881,489,188,-1144,-1139,-1163,-1377,535,2037
1188,481,-96,-876,482,190,-1146,-1141,-1169,-1376,542,2043
1193,482,-100,-879,487,188,-1150,-1145,-1176,-1377,546,2048
1193,483,-99,-879,486,189,-1155,-1152,-1185,-1378,548,2051
1190,486,-93,-879,482,194,-1157,-1157,-1188,-1377,552,2054
1202,488,-103,-886,493,190,-1161,-1160,-1192,-1374,555,2058
1214,490,-113,-893,504,186,-1161,-1162,-1192,-1369,562,2067
1208,493,-104,-892,496,192,-1158,-1161,-1185,-1358,578,2086
1219,507,-101,-904,500,200,-1163,-1166,-1184,-1351,588,2096
1225,522,-92,-915,499,213,-1165,-1167,-1179,-1341,599,2109
1236,530,-95,-924,506,215,-1169,-1167,-1173,-1330,607,2119
1257,528,-118,-934,528,203,-1179,-1175,-1174,-1326,605,2116
1267,531,-125,-940,536,201,-1187,-1180,-1169,-1317,605,2118
1258,542,-105,-941,522,216,-1183,-1172,-1154,-1296,620,2135
1270,566,-93,-959,522,234,-1182,-1163,-1139,-1277,636,2153
1290,574,-105,-973,538,232,-1193,-1168,-1138,-1273,638,2155
1282,572,-99,-968,531,234,-1197,-1170,-1135,-1267,645,2160
1269,573,-85,-962,517,242,-1202,-1171,-1134,-1263,649,2163
1272,573,-88,-964,520,240,-1203,-1167,-1129,-1259,648,2160
1293,582,-100,-979,537,239,-1197,-1155,-1120,-1253,644,2156
1311,595,-105,-994,548,243,-1194,-1146,-1116,-1250,641,2151
1297,591,-95,-985,536,246,-1188,-1138,-1113,-1251,633,2142
1276,580,-85,-969,521,245,-1182,-1131,-1111,-1254,620,2128
1270,564,-95,-958,523,232,-1179,-1126,-1115,-1259,600,2104
1267,555,-101,-952,524,225,-1173,-1117,-1116,-1258,588,2089
1267,563,-93,-956,520,233,-1166,-1106,-1117,-1258,586,2084
1264,557,-96,-952,520,228,-1160,-1098,-1120,-1262,575,2074
1245,535,-99,-931,512,216,-1152,-1091,-1121,-1265,562,2060
1228,519,-98,-915,503,208,-1144,-1084,-1124,-1268,549,2047
1223,524,-88,-915,496,216,-1139,-1078,-1123,-1270,541,2037
1230,536,-83,-924,497,224,-1133,-1071,-1114,-1268,538,2029
1223,532,-80,-919,492,224,-1122,-1062,-1100,-1263,532,2024
1205,515,-79,-901,482,215,-1112,-1058,-1090,-1262,525,2017
1197,503,-83,-891,480,207,-1105,-1055,-1086,-1264,520,2009
1194,479,-104,-878,489,185,-1095,-1052,-1082,-1265,513,2001
1190,471,-108,-872,489,179,-1088,-1050,-1078,-1267,508,1997
1180,457,-112,-860,486,170,-1078,-1045,-1066,-1264,507,1999
1178,442,-125,-851,492,156,-1072,-1041,-1053,-1258,510,2002
1167,428,-128,-839,488,147,-1066,-1037,-1046,-1257,509,2001
1165,419,-135,-833,490,139,-1059,-1029,-1044,-1252,512,2003
1157,406,-140,-823,489,130,-1052,-1023,-1041,-1244,520,2011
1150,391,-148,-812,489,119,-1054,-1029,-1049,-1250,517,2005
1147,390,-146,-810,487,119,-1057,-1033,-1056,-1254,515,2001
1149,394,-144,-813,487,122,-1059,-1034,-1060,-1254,514,2001
1157,407,-139,-823,488,131,-1063,-1037,-1063,-1258,512,1998
1138,409,-118,-815,468,143,-1059,-1038,-1064,-1261,508,1994
1152,420,-121,-827,477,147,-1059,-1039,-1068,-1260,506,1993
1158,430,-117,-835,478,154,-1063,-1043,-1073,-1262,503,1992
1151,425,-115,-829,473,152,-1064,-1045,-1076,-1264,497,1985
1155,425,-119,-831,477,150,-1065,-1049,-1080,-1267,493,1985
1140,427,-102,-825,461,160,-1063,-1050,-1081,-1268,494,1990
1145,435,-99,-831,462,165,-1064,-1056,-1086,-1273,497,1994
1160,443,-106,-843,473,166,-1070,-1064,-1097,-1284,488,1983
1162,454,-97,-849,470,176,-1064,-1062,-1097,-1284,489,1983
1161,464,-86,-854,464,186,-1065,-1065,-1101,-1288,489,1981
1136,463,-62,-841,439,198,-1060,-1065,-1104,-1290,492,1981
1122,464,-47,-834,425,206,-1059,-1066,-1108,-1292,493,1982
1128,469,-48,-840,428,208,-1055,-1062,-1107,-1292,495,1984
1138,467,-60,-844,439,201,-1051,-1059,-1108,-1293,492,1975
1143,472,-60,-849,442,203,-1058,-1070,-1119,-1303,491,1969
1130,473,-46,-843,428,211,-1060,-1076,-1125,-1311,490,1969
1120,458,-51,-830,426,201,-1055,-1076,-1126,-1316,478,1962
1141,463,-67,-843,444,195,-1060,-1082,-1133,-1325,460,1945
1131,481,-39,-847,425,218,-1061,-1083,-1134,-1324,471,1956
1133,502,-20,-859,417,238,-1069,-1091,-1142,-1331,480,1964
1146,499,-36,-864,431,229,-1079,-1102,-1153,-1342,468,1954
1139,495,-33,-858,426,228,-1075,-1097,-1154,-1344,458,1947
1145,505,-29,-866,427,235,-1078,-1097,-1158,-1350,452,1942
1137,524,-2,-872,410,258,-1070,-1089,-1156,-1349,462,1948
1120,525,16,-864,392,268,-1064,-1083,-1154,-1348,472,1958
1131,520,0,-867,406,257,-1072,-1091,-1164,-1356,469,1956
1120,504,-5,-853,403,247,-1068,-1085,-1162,-1355,468,1953
1130,501,-18,-857,414,239,-1069,-1085,-1165,-1357,471,1953
1122,481,-30,-843,416,223,-1071,-1088,-1174,-1362,474,1955
1116,480,-25,-839,411,225,-1066,-1084,-1174,-1359,481,1959
1133,491,-31,-853,422,227,-1060,-1075,-1169,-1354,485,1965
1141,479,-51,-851,436,211,-1062,-1078,-1173,-1361,475,1957
1138,466,-61,-843,440,200,-1066,-1081,-1177,-1371,468,1952
1124,456,-57,-831,431,197,-1057,-1073,-1169,-1369,469,1952
1121,450,-60,-827,431,192,-1055,-1070,-1165,-1369,470,1952
1099,438,-50,-810,415,191,-1051,-1072,-1166,-1371,464,1946
1118,461,-46,-831,422,205,-1045,-1068,-1158,-1367,452,1936
1147,466,-70,-848,449,195,-1045,-1070,-1155,-1369,443,1929
1136,448,-77,-833,447,183,-1043,-1071,-1151,-1372,458,1942
1122,434,-77,-819,440,176,-1044,-1074,-1149,-1375,472,1953
1129,430,-88,-821,449,168,-1050,-1081,-1151,-1382,472,1956
1133,450,-72,-833,443,186,-1039,-1070,-1138,-1370,486,1970
1138,461,-66,-841,442,195,-1036,-1064,-1132,-1368,480,1962
1130,449,-70,-831,440,187,-1042,-1070,-1136,-1372,469,1953
1111,439,-61,-816,426,186,-1042,-1072,-1136,-1371,478,1961
1121,446,-64,-825,433,188,-1036,-1069,-1132,-1369,480,1963
1157,472,-74,-856,456,196,-1032,-1060,-1123,-1360,487,1972
1146,482,-53,-855,440,212,-1035,-1062,-1121,-1355,494,1978
1132,468,-53,-841,433,205,-1037,-1064,-1123,-1357,493,1974
1135,452,-72,-835,444,187,-1040,-1067,-1127,-1360,485,1967
1139,448,-80,-835,450,181,-1048,-1071,-1133,-1365,471,1957
1132,455,-66,-835,439,192,-1052,-1075,-1137,-1368,462,1947
1147,461,-75,-845,451,190,-1057,-1075,-1137,-1366,463,1948
1155,459,-85,-848,460,184,-1063,-1080,-1144,-1370,453,1937
1144,454,-79,-840,452,185,-1059,-1077,-1141,-1363,456,1945
1126,442,-73,-825,440,182,-1052,-1072,-1138,-1357,460,1950
1139,441,-87,-831,453,174,-1054,-1069,-1137,-1354,470,1956
1141,445,-85,-834,453,177,-1054,-1070,-1138,-1352,477,1960
1132,443,-78,-829,445,180,-1058,-1076,-1145,-1355,474,1960
1140,445,-84,-834,452,178,-1063,-1082,-1151,-1357,468,1959
1145,442,-92,-835,459,172,-1065,-1085,-1153,-1359,453,1946
1133,443,-79,-829,446,179,-1061,-1083,-1149,-1354,453,1951
1133,444,-78,-830,446,180,-1059,-1082,-1145,-1347,467,1964
1141,445,-85,-834,453,177,-1062,-1087,-1145,-1345,467,1961
1148,435,-102,-833,465,164,-1066,-1092,-1147,-1345,454,1952
1141,429,-101,-826,461,161,-1063,-1092,-1145,-1344,443,1942
1138,435,-92,-828,455,169,-1063,-1093,-1140,-1337,451,1950
1138,431,-96,-826,457,165,-1061,-1093,-1133,-1329,459,1956
1134,427,-96,-822,455,163,-1062,-1097,-1129,-1327,463,1959
1136,422,-103,-820,460,157,-1064,-1097,-1125,-1327,460,1953
1140,414,-115,-818,468,147,-1064,-1093,-1120,-1324,457,1951
1128,397,-120,-804,464,136,-1060,-1088,-1113,-1319,459,1954
1129,377,-141,-794,475,115,-1059,-1085,-1108,-1316,461,1957
1141,352,-178,-788,500,84,-1052,-1076,-1097,-1308,469,1963
1153,326,-216,-781,525,52,-1033,-1055,-1078,-1293,482,1976
1143,265,-267,-745,545,-4,-1011,-1033,-1059,-1275,496,1991
1125,197,-317,-702,561,-63,-990,-1012,-1042,-1257,514,2008
1126,157,-358,-683,582,-103,-982,-1003,-1033,-1249,529,2021
1149,166,-372,-699,601,-106,-987,-1006,-1038,-1253,529,2019
1156,195,-350,-717,593,-80,-995,-1015,-1048,-1260,528,2016
1157,224,-322,-732,580,-52,-995,-1015,-1051,-1261,529,2014
1156,244,-301,-741,569,-31,-1001,-1021,-1060,-1272,519,2002
1158,256,-291,-748,565,-20,-1015,-1037,-1079,-1292,506,1988
1134,259,-264,-738,539,-5,-1011,-1036,-1084,-1300,499,1980
1128,271,-246,-741,527,10,-1012,-1038,-1088,-1306,496,1976
1139,289,-239,-755,529,22,-1028,-1053,-1103,-1320,490,1971
1131,298,-222,-756,517,35,-1033,-1058,-1110,-1329,484,1965
1138,315,-212,-768,515,49,-1038,-1058,-1111,-1334,484,1966
1131,334,-186,-774,499,71,-1039,-1060,-1109,-1342,483,1961
1137,350,-176,-785,497,84,-1043,-1062,-1111,-1349,486,1964
1139,358,-170,-790,495,91,-1044,-1062,-1121,-1355,482,1961
1145,367,-167,-797,496,97,-1050,-1067,-1130,-1367,477,1959
1152,383,-158,-809,495,110,-1058,-1071,-1125,-1379,475,1960
1151,384,-156,-809,494,111,-1065,-1078,-1138,-1391,463,1948
1153,400,-142,-818,488,126,-1072,-1083,-1148,-1400,460,1944
1156,413,-132,-826,484,138,-1082,-1092,-1165,-1414,451,1937
1152,431,-110,-833,471,158,-1092,-1104,-1191,-1430,440,1927
1148,454,-83,-842,456,183,-1095,-1106,-1195,-1440,437,1923
1136,456,-69,-837,443,191,-1093,-1106,-1186,-1448,435,1920
1147,450,-86,-840,457,179,-1092,-1106,-1201,-1454,429,1917
1160,448,-101,-845,471,171,-1094,-1111,-1226,-1462,422,1914
1155,456,-88,-847,462,181,-1095,-1115,-1238,-1468,424,1916
1143,462,-70,-844,447,193,-1088,-1110,-1239,-1468,428,1919
1159,469,-79,-855,459,192,-1091,-1114,-1250,-1474,426,1915
1153,474,-68,-855,451,200,-1093,-1116,-1259,-1476,424,1915
1150,485,-54,-859,442,213,-1095,-1118,-1266,-1479,418,1910
1137,497,-29,-858,423,231,-1099,-1124,-1275,-1481,411,1902
1133,508,-14,-862,414,244,-1095,-1121,-1272,-1472,412,1901
1151,528,-12,-881,422,255,-1098,-1124,-1275,-1467,408,1897
1163,544,-8,-895,426,265,-1102,-1129,-1283,-1463,402,1890
1170,558,-1,-905,426,276,-1105,-1131,-1291,-1456,393,1881
1152,572,31,-903,401,299,-1102,-1126,-1289,-1442,398,1885
1150,579,40,-906,395,307,-1101,-1123,-1267,-1429,403,1886
1165,583,29,-915,408,303,-1106,-1122,-1230,-1417,413,1892
1164,568,15,-907,415,289,-1104,-1115,-1203,-1405,420,1897
1177,551,-15,-905,436,265,-1100,-1109,-1182,-1398,421,1898
1174,533,-30,-895,442,249,-1094,-1102,-1163,-1389,427,1905
1162,513,-38,-879,440,235,-1094,-1101,-1151,-1382,433,1911
1167,499,-57,-874,452,218,-1098,-1103,-1142,-1378,435,1913
1166,488,-67,-868,457,208,-1100,-1099,-1128,-1370,442,1916
1175,495,-69,-876,462,210,-1099,-1089,-1110,-1356,463,1936
1191,497,-83,-885,477,204,-1110,-1088,-1103,-1353,470,1939
1200,501,-88,-892,484,204,-1115,-1087,-1100,-1351,476,1946
1188,497,-80,-884,474,206,-1110,-1087,-1102,-1355,472,1943
1185,483,-91,-875,478,193,-1112,-1095,-1119,-1370,448,1923
1198,476,-111,-878,495,180,-1116,-1101,-1134,-1383,428,1909
1211,478,-122,-886,507,175,-1114,-1104,-1144,-1390,427,1909
1202,472,-119,-878,501,174,-1106,-1097,-1144,-1385,435,1914
1197,465,-121,-872,499,169,-1101,-1092,-1146,-1381,440,1916
1182,464,-107,-864,485,176,-1089,-1087,-1147,-1378,449,1923
1162,460,-91,-852,467,182,-1075,-1083,-1151,-1377,457,1928
1150,452,-87,-842,459,180,-1072,-1086,-1161,-1382,453,1923
1162,472,-79,-858,461,194,-1068,-1083,-1166,-1382,455,1926
1174,483,-80,-870,467,199,-1067,-1084,-1175,-1384,449,1921
1174,449,-114,-853,484,165,-1073,-1095,-1196,-1400,420,1891
1158,426,-121,-833,480,150,-1065,-1092,-1200,-1402,410,1883
1142,431,-100,-828,461,163,-1055,-1081,-1195,-1395,417,1890
1133,422,-100,-819,457,158,-1053,-1082,-1197,-1399,408,1883
1133,426,-96,-821,455,162,-1051,-1082,-1194,-1397,410,1886
1158,434,-113,-837,476,158,-1052,-1082,-1191,-1394,417,1891
1160,433,-116,-838,478,156,-1048,-1079,-1184,-1392,413,1886
1134,420,-103,-818,459,156,-1047,-1083,-1179,-1397,409,1882
1133,405,-117,-810,465,141,-1051,-1088,-1176,-1401,411,1884
1145,422,-112,-825,469,152,-1040,-1077,-1161,-1396,417,1886
1141,426,-104,-825,463,158,-1026,-1066,-1146,-1396,414,1882
1133,403,-119,-809,466,139,-1015,-1058,-1139,-1401,402,1871
1109,396,-102,-794,446,144,-1002,-1054,-1140,-1405,395,1856
1097,405,-81,-792,429,159,-982,-1036,-1127,-1391,394,1851
1111,414,-86,-804,439,161,-973,-1012,-1104,-1364,402,1861
1134,426,-97,-821,456,162,-974,-985,-1070,-1319,434,1891
1174,459,-104,-858,479,175,-980,-946,-1008,-1240,482,1929
1251,522,-118,-928,525,200,-1012,-902,-930,-1142,547,1990
1341,605,-125,-1014,573,238,-1067,-868,-852,-1040,639,2083
1434,676,-147,-1096,631,262,-1121,-838,-787,-952,718,2172
1499,700,-188,-1140,684,254,-1169,-831,-755,-907,748,2217
1458,692,-155,-1116,647,266,-1191,-879,-781,-924,741,2231
1356,665,-80,-1052,558,290,-1191,-970,-891,-1025,707,2220
1289,574,-104,-973,537,233,-1144,-1017,-1012,-1159,615,2139
1254,416,-227,-876,581,92,-1065,-993,-1086,-1286,468,2000
1217,348,-258,-824,578,42,-1009,-963,-1100,-1329,411,1938
1186,341,-234,-805,550,51,-987,-965,-1107,-1336,419,1937
1201,356,-234,-820,558,58,-1003,-1006,-1139,-1361,410,1926
1184,369,-204,-818,534,80,-1021,-1038,-1162,-1377,405,1922
1140,379,-150,-801,485,112,-1022,-1037,-1155,-1365,429,1940
1150,397,-142,-815,486,125,-1024,-1043,-1156,-1357,451,1946
1177,423,-143,-841,500,137,-1028,-1048,-1159,-1355,458,1946
1159,420,-128,-831,484,143,-1025,-1049,-1161,-1358,452,1943
1139,405,-123,-813,471,138,-1026,-1052,-1164,-1361,445,1941
1150,407,-132,-820,481,135,-1027,-1055,-1163,-1364,443,1938
1159,410,-138,-826,489,133,-1029,-1057,-1160,-1366,436,1931
1150,412,-127,-822,479,140,-1024,-1052,-1153,-1362,429,1927
1147,397,-139,-813,483,126,-1021,-1049,-1150,-1357,425,1924
1159,403,-145,-822,492,126,-1025,-1050,-1150,-1351,433,1926
1149,401,-137,-816,483,129,-1027,-1050,-1150,-1350,435,1922
1143,402,-130,-814,477,133,-1028,-1052,-1151,-1350,436,1922
1140,403,-126,-813,473,136,-1027,-1051,-1150,-1350,434,1922
1155,407,-137,-822,486,132,-1028,-1048,-1147,-1345,435,1925
1154,412,-131,-824,483,138,-1029,-1049,-1148,-1346,435,1925
1152,401,-140,-818,486,128,-1030,-1048,-1152,-1348,431,1919
1151,410,-130,-822,481,137,-1035,-1048,-1153,-1349,431,1917
1151,420,-120,-827,476,147,-1037,-1050,-1152,-1348,431,1918
1145,403,-131,-815,478,133,-1033,-1047,-1152,-1347,430,1917
1153,415,-127,-825,480,141,-1034,-1046,-1154,-1346,431,1918
1160,432,-117,-837,479,155,-1037,-1046,-1154,-1345,431,1919
1153,425,-117,-830,475,151,-1039,-1048,-1158,-1348,424,1910
1148,417,-120,-824,474,146,-1039,-1048,-1160,-1351,421,1905
1160,416,-133,-829,487,139,-1040,-1046,-1159,-1346,433,1916
1157,412,-134,-826,486,136,-1036,-1041,-1156,-1341,439,1921
1155,417,-127,-827,481,142,-1034,-1038,-1152,-1337,447,1926
1165,433,-121,-840,483,153,-1035,-1035,-1149,-1332,456,1932
1161,424,-126,-834,484,146,-1033,-1032,-1148,-1330,455,1928
1160,422,-127,-832,484,145,-1035,-1033,-1149,-1329,450,1926
1161,426,-124,-835,483,148,-1038,-1034,-1149,-1327,452,1929
1158,419,-128,-830,483,143,-1040,-1034,-1149,-1325,451,1927
1160,418,-131,-830,486,141,-1042,-1032,-1147,-1320,455,1930
1167,423,-133,-836,490,142,-1045,-1030,-1142,-1316,460,1933
1172,422,-139,-838,496,139,-1043,-1026,-1137,-1311,460,1931
1174,428,-135,-842,495,144,-1044,-1024,-1133,-1308,463,1933
1164,420,-133,-833,489,141,-1047,-1023,-1133,-1310,463,1931
1171,420,-140,-837,496,137,-1054,-1024,-1133,-1313,464,1931
1180,422,-147,-842,504,135,-1058,-1020,-1129,-1312,469,1934
1175,421,-143,-839,499,136,-1056,-1014,-1123,-1311,473,1935
1181,426,-144,-845,503,138,-1051,-1005,-1113,-1304,477,1937
1186,425,-150,-847,508,135,-1050,-999,-1106,-1299,477,1935
1192,425,-156,-850,514,132,-1049,-992,-1096,-1292,485,1943
1193,427,-155,-851,514,133,-1053,-987,-1089,-1286,493,1947
1193,424,-158,-850,516,130,-1057,-985,-1084,-1282,494,1946
1210,426,-173,-859,532,124,-1058,-977,-1077,-1275,498,1948
1217,437,-169,-868,533,131,-1057,-968,-1067,-1269,505,1953
1208,427,-170,-859,529,126,-1058,-966,-1063,-1268,505,1952
1204,413,-180,-850,532,114,-1060,-967,-1062,-1268,501,1948
1212,424,-177,-859,535,121,-1067,-967,-1061,-1268,498,1948
1215,425,-179,-861,537,120,-1068,-964,-1057,-1267,495,1946
1210,411,-188,-852,539,109,-1074,-967,-1060,-1274,487,1941
1204,406,-187,-846,536,107,-1075,-968,-1059,-1276,488,1946
1209,412,-186,-852,538,110,-1075,-966,-1055,-1274,491,1951
1228,429,-188,-870,548,118,-1074,-964,-1051,-1273,494,1955
1235,446,-178,-882,547,132,-1076,-966,-1052,-1275,498,1959
1227,459,-157,-884,532,149,-1072,-966,-1052,-1276,503,1965
1204,453,-140,-870,512,154,-1071,-974,-1057,-1288,499,1963
1208,441,-156,-866,522,140,-1077,-989,-1070,-1308,486,1952
1213,443,-159,-869,526,139,-1081,-1001,-1083,-1322,483,1953
1194,433,-150,-855,512,139,-1076,-1006,-1091,-1329,488,1962
1181,416,-154,-840,508,128,-1070,-1010,-1093,-1335,488,1962
1184,424,-149,-845,507,135,-1065,-1014,-1097,-1343,490,1965
1194,426,-157,-851,516,132,-1069,-1025,-1120,-1355,483,1961
1180,412,-157,-837,509,125,-1067,-1031,-1131,-1367,474,1955
1158,401,-146,-821,492,125,-1062,-1032,-1140,-1368,473,1954
1162,402,-149,-823,496,124,-1064,-1037,-1150,-1370,472,1951
1175,402,-162,-830,509,117,-1064,-1040,-1155,-1371,469,1945
1165,406,-148,-827,497,126,-1059,-1040,-1157,-1371,469,1945
1141,401,-129,-812,475,133,-1048,-1037,-1156,-1370,470,1948
1149,395,-143,-813,486,123,-1051,-1041,-1160,-1374,462,1943
1150,402,-137,-817,484,130,-1053,-1046,-1164,-1376,460,1943
1145,400,-134,-814,480,130,-1049,-1044,-1158,-1372,462,1948
1142,388,-143,-806,483,120,-1051,-1048,-1160,-1374,455,1941
1146,386,-149,-807,488,116,-1048,-1050,-1160,-1374,451,1939
1159,398,-150,-820,495,121,-1041,-1046,-1152,-1368,454,1945
1155,389,-155,-813,495,114,-1042,-1049,-1152,-1370,448,1941
1163,387,-165,-816,504,108,-1044,-1052,-1152,-1373,443,1938
1172,398,-163,-826,508,115,-1034,-1044,-1144,-1364,448,1945
1155,397,-147,-817,491,122,-1024,-1036,-1136,-1355,453,1951
1147,392,-144,-811,486,121,-1023,-1035,-1136,-1353,452,1950
1138,382,-145,-801,482,116,-1024,-1036,-1136,-1352,453,1951
1149,381,-157,-806,493,109,-1028,-1040,-1138,-1352,454,1952
1150,383,-156,-808,493,111,-1033,-1043,-1143,-1354,453,1950
1140,381,-148,-802,484,114,-1036,-1046,-1146,-1355,453,1951
1152,390,-151,-812,492,117,-1038,-1045,-1147,-1352,454,1954
1147,401,-135,-815,481,130,-1031,-1037,-1141,-1340,463,1963
1138,403,-124,-812,471,137,-1029,-1035,-1140,-1334,465,1967
1145,397,-137,-812,481,127,-1032,-1038,-1146,-1336,456,1960
1150,391,-148,-812,489,119,-1038,-1043,-1154,-1340,447,1951
1143,397,-135,-811,479,128,-1039,-1043,-1157,-1338,446,1952
1142,398,-133,-811,478,130,-1041,-1042,-1161,-1336,445,1952
1145,405,-129,-816,477,135,-1042,-1041,-1159,-1335,445,1951
1142,406,-125,-815,474,138,-1042,-1043,-1153,-1337,444,1949
1148,414,-123,-822,476,143,-1048,-1046,-1145,-1340,449,1954
1135,416,-108,-817,462,151,-1051,-1048,-1138,-1342,450,1954
1137,421,-105,-820,461,155,-1054,-1048,-1135,-1344,444,1948
1145,422,-112,-825,469,152,-1055,-1045,-1133,-1342,441,1947
1153,425,-117,-830,475,151,-1057,-1044,-1128,-1342,442,1950
1147,415,-121,-822,474,144,-1059,-1046,-1118,-1342,446,1953
1144,410,-123,-818,474,141,-1059,-1043,-1108,-1337,454,1958
1144,415,-118,-821,471,146,-1061,-1041,-1110,-1335,460,1962
1135,410,-114,-814,465,145,-1058,-1036,-1115,-1327,467,1970
1129,406,-112,-809,461,144,-1057,-1031,-1113,-1322,475,1976
1137,409,-117,-814,467,143,-1061,-1031,-1115,-1323,472,1974
1134,412,-111,-814,463,148,-1063,-1035,-1120,-1325,466,1970
1130,404,-115,-808,463,142,-1062,-1036,-1124,-1326,460,1967
1134,395,-128,-806,471,131,-1062,-1040,-1131,-1332,445,1953
1146,400,-135,-814,481,130,-1063,-1043,-1135,-1334,441,1947
1140,398,-131,-810,476,131,-1061,-1042,-1135,-1330,451,1958
1143,400,-132,-813,478,131,-1065,-1045,-1140,-1331,456,1963
1141,406,-124,-815,473,138,-1065,-1048,-1143,-1331,458,1967
1139,412,-116,-817,468,145,-1061,-1045,-1142,-1327,461,1970
1152,418,-123,-826,478,145,-1063,-1042,-1141,-1324,463,1974
1157,437,-109,-838,473,161,-1065,-1041,-1139,-1321,471,1982
1172,456,-105,-855,479,173,-1074,-1047,-1145,-1324,471,1981
1155,455,-89,-846,462,180,-1071,-1046,-1148,-1322,471,1983
1149,445,-93,-838,461,173,-1065,-1041,-1145,-1317,474,1989
1143,435,-97,-830,460,166,-1062,-1040,-1142,-1313,475,1988
1139,438,-90,-830,455,171,-1067,-1047,-1146,-1317,473,1984
1150,450,-89,-841,460,178,-1074,-1053,-1148,-1318,476,1989
1179,461,-107,-861,483,174,-1081,-1057,-1151,-1320,480,1999
1186,463,-112,-866,489,173,-1086,-1056,-1151,-1319,486,2005
1171,462,-98,-858,475,179,-1088,-1049,-1145,-1311,495,2010
1170,460,-99,-856,475,178,-1091,-1049,-1144,-1309,497,2016
1176,451,-114,-855,485,166,-1094,-1057,-1152,-1317,492,2015
1181,429,-141,-846,501,141,-1090,-1061,-1160,-1326,484,2014
1199,427,-161,-854,520,130,-1097,-1071,-1173,-1339,472,2005
1209,426,-172,-859,531,124,-1103,-1080,-1184,-1350,461,1994
1185,423,-151,-845,508,133,-1092,-1071,-1180,-1347,451,1980
1163,433,-119,-839,481,154,-1081,-1061,-1172,-1338,455,1988
1152,432,-109,-833,471,159,-1073,-1058,-1173,-1339,458,1992
1165,431,-123,-839,484,151,-1075,-1063,-1180,-1345,469,1995
1144,424,-109,-825,467,155,-1076,-1068,-1185,-1351,478,1997
1116,423,-82,-811,439,168,-1068,-1064,-1184,-1356,474,1990
1145,429,-105,-828,465,159,-1067,-1061,-1190,-1369,449,1967
1129,427,-91,-819,450,165,-1056,-1050,-1190,-1373,446,1965
1128,429,-88,-820,448,168,-1045,-1036,-1185,-1373,457,1973
1143,420,-112,-823,468,151,-1050,-1040,-1195,-1387,448,1961
1140,409,-120,-816,470,142,-1053,-1046,-1205,-1401,429,1942
1115,391,-113,-794,454,136,-1045,-1040,-1199,-1400,431,1946
1109,374,-124,-783,457,122,-1043,-1040,-1197,-1405,427,1938
1124,384,-129,-795,467,125,-1043,-1041,-1193,-1407,424,1936
1153,400,-142,-818,488,126,-1045,-1043,-1191,-1405,435,1946
1145,401,-133,-814,479,131,-1035,-1038,-1183,-1399,450,1958
1095,387,-97,-782,436,142,-1020,-1029,-1173,-1392,469,1973
1100,377,-112,-780,446,130,-1016,-1030,-1173,-1397,464,1964
1106,376,-119,-782,453,126,-998,-1018,-1164,-1395,456,1953
1100,391,-98,-787,439,144,-977,-1004,-1152,-1389,446,1937
1094,387,-96,-782,435,143,-967,-1007,-1154,-1395,419,1904
1067,373,-83,-761,415,142,-954,-994,-1140,-1385,411,1888
1090,384,-95,-778,433,142,-944,-962,-1104,-1349,427,1900
1113,406,-96,-801,445,152,-950,-935,-1056,-1293,472,1939
1164,464,-89,-855,467,185,-968,-887,-969,-1196,543,1998
1248,535,-102,-933,515,214,-1009,-833,-868,-1082,612,2066
1328,598,-119,-1004,564,237,-1065,-789,-777,-970,699,2157
1410,623,-176,-1058,633,221,-1116,-743,-700,-881,762,2224
1464,634,-219,-1090,682,205,-1156,-739,-671,-843,783,2258
1426,649,-166,-1078,636,239,-1178,-837,-747,-900,770,2265
1331,608,-112,-1011,562,246,-1168,-958,-901,-1043,705,2213
1261,488,-162,-916,552,161,-1097,-982,-1020,-1192,575,2094
1216,358,-247,-828,572,53,-1015,-952,-1085,-1309,448,1975
1187,334,-242,-802,555,43,-982,-946,-1103,-1337,432,1953
1173,350,-212,-803,533,66,-981,-973,-1124,-1346,450,1966
1166,358,-197,-803,522,78,-1001,-1009,-1150,-1361,455,1971
1155,374,-170,-806,503,99,-1028,-1039,-1169,-1373,454,1968
1150,383,-156,-808,493,111,-1037,-1053,-1173,-1372,449,1954
1139,382,-146,-802,483,115,-1032,-1054,-1166,-1365,453,1951
1126,382,-133,-795,470,122,-1026,-1051,-1157,-1356,456,1948
1129,391,-127,-801,468,129,-1029,-1058,-1155,-1353,457,1949
1133,385,-137,-800,475,121,-1030,-1062,-1152,-1352,454,1946
1129,385,-133,-798,471,123,-1028,-1061,-1142,-1344,450,1943
1128,389,-128,-800,468,128,-1027,-1059,-1131,-1337,448,1943
1130,383,-136,-798,473,121,-1026,-1057,-1125,-1335,440,1936
1133,375,-147,-795,480,111,-1026,-1055,-1123,-1333,441,1937
1121,364,-146,-784,474,106,-1017,-1046,-1118,-1329,439,1936
1116,355,-150,-777,473,100,-1014,-1043,-1116,-1330,446,1943
1114,328,-175,-762,485,74,-1009,-1037,-1109,-1327,460,1956
1116,280,-225,-739,511,25,-995,-1022,-1093,-1310,477,1973
1111,225,-275,-709,533,-28,-973,-1001,-1075,-1284,494,1989
1114,174,-329,-685,562,-80,-957,-982,-1059,-1263,513,2006
1141,139,-391,-681,606,-129,-953,-975,-1052,-1252,523,2015
1127,114,-402,-662,605,-147,-940,-961,-1044,-1239,535,2024
1120,115,-394,-659,597,-142,-936,-956,-1043,-1235,539,2028
1118,134,-373,-667,586,-122,-940,-960,-1049,-1238,538,2024
1131,166,-354,-690,583,-97,-953,-972,-1063,-1248,528,2011
1150,198,-341,-715,586,-74,-969,-986,-1077,-1259,523,2005
1144,208,-325,-717,575,-61,-977,-991,-1084,-1263,524,2005
1129,222,-296,-717,553,-40,-987,-998,-1092,-1272,515,1993
1125,245,-269,-726,537,-15,-989,-997,-1091,-1271,515,1996
1133,269,-253,-742,533,5,-992,-996,-1091,-1274,510,1994
1134,277,-246,-747,530,13,-993,-995,-1092,-1276,511,1994
1124,281,-232,-744,518,22,-995,-997,-1095,-1281,517,1996
1131,292,-228,-753,520,29,-1001,-998,-1098,-1286,517,1996
1139,298,-230,-760,525,31,-1007,-999,-1100,-1296,508,1988
1142,311,-220,-768,521,43,-1016,-1005,-1101,-1307,500,1983
1154,329,-214,-783,524,55,-1025,-1012,-1113,-1314,501,1985
1151,341,-199,-787,515,68,-1029,-1013,-1131,-1319,505,1987
1153,354,-188,-795,511,80,-1036,-1016,-1143,-1324,502,1985
1154,373,-170,-805,502,99,-1045,-1021,-1151,-1331,496,1981
1162,396,-155,-820,499,118,-1058,-1031,-1162,-1342,483,1969
1159,426,-122,-834,481,149,-1066,-1034,-1160,-1348,476,1965
1154,446,-97,-841,466,172,-1069,-1029,-1146,-1349,472,1963
1159,468,-80,-855,460,191,-1075,-1027,-1137,-1350,475,1966
1173,494,-68,-875,461,210,-1083,-1027,-1138,-1354,477,1966
1178,506,-61,-883,460,220,-1089,-1027,-1142,-1353,483,1970
1181,493,-77,-878,469,205,-1088,-1019,-1138,-1345,487,1971
1178,489,-78,-875,468,203,-1088,-1014,-1135,-1338,491,1974
1176,493,-72,-876,464,208,-1087,-1008,-1129,-1330,493,1974
1184,498,-75,-882,470,209,-1086,-1002,-1124,-1322,493,1973
1186,503,-72,-886,469,213,-1085,-995,-1115,-1310,501,1981
1198,508,-79,-894,479,212,-1088,-991,-1111,-1298,504,1982
1203,514,-78,-900,481,215,-1094,-991,-1111,-1291,501,1978
1194,529,-54,-903,464,235,-1097,-989,-1103,-1280,506,1980
1208,550,-47,-920,468,249,-1101,-988,-1099,-1274,502,1976
1223,561,-51,-933,477,253,-1107,-989,-1113,-1270,493,1968
1224,579,-34,-943,469,270,-1112,-993,-1117,-1268,490,1962
1220,584,-25,-943,463,277,-1122,-1007,-1108,-1276,477,1952
1211,592,-8,-943,450,289,-1129,-1019,-1106,-1284,470,1944
1207,608,12,-949,438,307,-1133,-1033,-1111,-1294,467,1938
1192,600,19,-937,427,307,-1131,-1045,-1116,-1305,459,1928
1198,575,-12,-928,445,279,-1129,-1054,-1123,-1315,449,1922
1214,553,-50,-925,472,249,-1123,-1061,-1127,-1323,446,1921
1213,523,-79,-909,486,219,-1115,-1067,-1134,-1334,439,1914
1177,494,-72,-877,465,208,-1098,-1062,-1131,-1334,446,1923
1144,468,-65,-847,445,199,-1083,-1058,-1131,-1336,450,1927
1151,463,-77,-848,454,190,-1082,-1065,-1141,-1347,451,1926
1164,457,-96,-852,470,178,-1078,-1068,-1150,-1356,441,1920
1154,438,-105,-837,470,164,-1073,-1070,-1154,-1362,432,1914
1159,430,-118,-836,479,153,-1068,-1071,-1159,-1366,438,1919
1159,431,-117,-836,478,154,-1064,-1073,-1167,-1372,437,1917
1156,417,-128,-828,482,142,-1066,-1080,-1179,-1381,430,1910
1151,406,-134,-820,483,133,-1065,-1082,-1184,-1385,437,1911
1143,411,-121,-818,472,142,-1059,-1078,-1184,-1384,451,1918
1151,409,-131,-821,481,136,-1062,-1082,-1196,-1391,444,1911
1157,415,-131,-827,484,139,-1065,-1086,-1205,-1396,432,1904
1144,409,-124,-818,474,140,-1061,-1087,-1207,-1397,431,1906
1135,413,-111,-815,463,148,-1051,-1081,-1200,-1387,442,1912
1135,413,-111,-815,463,148,-1051,-1080,-1198,-1386,438,1910
1151,411,-129,-822,480,138,-1053,-1083,-1197,-1387,428,1907
1156,407,-138,-823,487,132,-1052,-1085,-1195,-1387,432,1907
1152,399,-142,-817,487,126,-1053,-1089,-1198,-1391,431,1903
1159,403,-145,-822,492,126,-1054,-1092,-1197,-1392,432,1907
1154,399,-144,-818,489,125,-1053,-1094,-1194,-1394,432,1908
1157,407,-139,-823,488,131,-1047,-1085,-1183,-1388,440,1916
1155,413,-131,-825,483,138,-1048,-1084,-1181,-1388,439,1913
1155,415,-129,-826,482,140,-1049,-1084,-1182,-1389,431,1905
1153,413,-129,-824,481,139,-1053,-1088,-1183,-1390,430,1907
1141,401,-129,-812,475,133,-1055,-1094,-1187,-1394,423,1905
1129,399,-119,-805,464,137,-1047,-1085,-1175,-1383,434,1919
1131,406,-114,-810,463,143,-1042,-1078,-1161,-1374,438,1921
1142,412,-119,-818,471,144,-1045,-1081,-1160,-1377,430,1917
1163,412,-140,-829,492,133,-1047,-1081,-1162,-1376,419,1910
1167,404,-152,-827,500,123,-1046,-1082,-1170,-1372,425,1914
1146,381,-154,-805,490,111,-1048,-1086,-1182,-1374,427,1913
1141,383,-147,-803,484,115,-1049,-1086,-1186,-1372,436,1923
1109,368,-130,-780,460,116,-1046,-1087,-1187,-1372,441,1930
1104,368,-125,-777,455,119,-1044,-1083,-1186,-1370,439,1930
1120,374,-135,-788,468,117,-1042,-1081,-1186,-1368,434,1930
1160,395,-154,-819,497,118,-1042,-1076,-1184,-1363,436,1936
1184,403,-170,-835,517,114,-1040,-1074,-1184,-1363,435,1936
1136,382,-143,-800,480,117,-1029,-1067,-1178,-1360,430,1933
1111,368,-132,-781,462,115,-1026,-1064,-1176,-1358,436,1940
1129,366,-152,-789,481,104,-1038,-1075,-1188,-1367,437,1939
1147,382,-154,-806,491,111,-1035,-1071,-1186,-1363,444,1947
1143,381,-151,-803,487,112,-1035,-1071,-1188,-1362,446,1949
1132,373,-148,-794,480,110,-1031,-1066,-1187,-1361,444,1951
1152,391,-150,-813,491,118,-1034,-1066,-1188,-1359,448,1954
1147,395,-141,-812,484,124,-1034,-1064,-1187,-1358,446,1953
1148,388,-149,-809,489,117,-1036,-1063,-1188,-1357,444,1955
1154,384,-159,-810,497,110,-1034,-1060,-1187,-1355,451,1961
1150,382,-157,-807,494,110,-1038,-1062,-1190,-1356,454,1963
1134,382,-141,-799,478,118,-1044,-1067,-1199,-1360,454,1961
1130,378,-141,-795,476,116,-1050,-1072,-1210,-1363,447,1955
1129,381,-137,-796,473,119,-1050,-1074,-1215,-1367,437,1947
1139,389,-139,-805,479,122,-1051,-1071,-1211,-1365,433,1946
1145,397,-137,-812,481,127,-1050,-1066,-1201,-1359,441,1952
1155,408,-136,-823,486,133,-1057,-1067,-1200,-1357,446,1955
1142,407,-124,-816,473,139,-1057,-1062,-1192,-1351,452,1962
1151,408,-132,-821,482,135,-1063,-1064,-1189,-1350,454,1962
1162,398,-153,-821,498,120,-1073,-1073,-1197,-1357,446,1954
1159,409,-139,-825,489,132,-1072,-1071,-1193,-1353,453,1959
1150,419,-120,-826,475,147,-1069,-1066,-1188,-1347,462,1966
1142,418,-113,-821,468,150,-1075,-1071,-1191,-1350,461,1964
1154,424,-119,-830,477,150,-1081,-1071,-1190,-1349,458,1966
1172,430,-131,-842,492,147,-1084,-1072,-1191,-1349,459,1964
1174,433,-130,-845,492,149,-1090,-1074,-1191,-1349,465,1966
1175,438,-126,-848,491,153,-1100,-1074,-1189,-1347,472,1972
1188,436,-141,-853,505,145,-1111,-1076,-1189,-1350,472,1977
1191,430,-150,-852,511,137,-1118,-1083,-1195,-1359,466,1973
1188,430,-147,-850,508,139,-1114,-1085,-1201,-1367,462,1968
1191,427,-153,-850,512,134,-1114,-1094,-1213,-1381,452,1957
1169,409,-149,-830,499,127,-1111,-1102,-1223,-1392,439,1946
1162,399,-152,-822,497,121,-1105,-1097,-1221,-1391,434,1942
1183,427,-145,-846,504,138,-1102,-1092,-1216,-1385,451,1954
1164,423,-130,-835,487,144,-1089,-1086,-1212,-1378,462,1961
1149,415,-123,-823,476,143,-1077,-1084,-1213,-1378,459,1958
1142,416,-115,-820,469,148,-1075,-1088,-1218,-1380,454,1952
1137,400,-126,-810,472,134,-1070,-1085,-1216,-1378,452,1949
1138,389,-138,-805,478,123,-1064,-1081,-1213,-1375,452,1949
1135,377,-147,-797,481,112,-1061,-1080,-1214,-1376,445,1939
1128,373,-144,-792,476,112,-1060,-1081,-1218,-1379,440,1934
1123,364,-148,-785,476,105,-1058,-1080,-1221,-1380,438,1931
1129,364,-154,-788,482,102,-1059,-1080,-1224,-1381,442,1934
1128,364,-153,-787,481,103,-1060,-1079,-1225,-1383,445,1935
1118,355,-152,-778,475,99,-1057,-1076,-1227,-1385,440,1927
1121,350,-160,-777,481,92,-1056,-1075,-1227,-1387,436,1924
1128,348,-169,-779,489,87,-1058,-1073,-1225,-1389,437,1925
1129,351,-167,-781,488,89,-1059,-1074,-1226,-1392,439,1925
1121,343,-167,-773,484,85,-1058,-1074,-1227,-1396,441,1926
1117,334,-172,-767,485,78,-1054,-1071,-1227,-1402,436,1920
1120,330,-179,-766,490,73,-1040,-1058,-1223,-1408,427,1907
1110,317,-182,-755,486,65,-1023,-1043,-1217,-1411,416,1889
1088,320,-157,-745,463,79,-1008,-1034,-1211,-1412,413,1877
1081,323,-147,-743,454,85,-993,-1017,-1197,-1404,417,1875
1083,320,-152,-743,458,81,-985,-999,-1179,-1387,433,1886
1105,333,-161,-760,473,83,-988,-976,-1147,-1348,460,1910
1149,376,-162,-804,496,104,-998,-939,-1083,-1273,513,1958
1220,434,-175,-868,538,127,-1032,-900,-1004,-1180,580,2022
1298,500,-187,-940,583,154,-1085,-873,-936,-1089,658,2106
1388,547,-230,-1009,649,156,-1140,-849,-883,-1018,711,2173
1462,556,-295,-1050,719,128,-1189,-835,-849,-980,731,2213
1428,551,-266,-1031,687,140,-1209,-884,-876,-1011,722,2223
1351,554,-186,-994,609,182,-1200,-971,-970,-1109,702,2217
1267,473,-183,-911,565,143,-1149,-1019,-1082,-1243,622,2143
1213,313,-289,-804,591,9,-1062,-983,-1142,-1358,482,2003
1203,266,-326,-776,605,-33,-1020,-958,-1153,-1394,424,1939
1187,300,-276,-785,572,9,-1012,-975,-1165,-1401,428,1937
1166,333,-222,-791,534,53,-1016,-1006,-1181,-1408,442,1946
1163,345,-207,-795,525,66,-1040,-1038,-1202,-1424,443,1946
1147,342,-194,-786,511,71,-1049,-1056,-1215,-1429,447,1944
1126,338,-177,-773,492,78,-1040,-1056,-1213,-1422,451,1940
1118,348,-159,-774,479,92,-1035,-1051,-1204,-1417,458,1941
1118,355,-152,-778,475,99,-1035,-1050,-1202,-1416,460,1939
1119,340,-168,-771,484,83,-1038,-1055,-1206,-1420,447,1927
1129,336,-182,-774,496,74,-1037,-1053,-1204,-1419,442,1920
1135,346,-178,-782,497,81,-1035,-1051,-1202,-1417,444,1920
1117,344,-162,-772,480,88,-1030,-1047,-1197,-1411,448,1924
1104,352,-141,-769,463,103,-1024,-1042,-1188,-1400,460,1935
1117,356,-150,-778,474,100,-1025,-1042,-1184,-1394,462,1937
1111,351,-149,-772,470,98,-1028,-1045,-1184,-1393,454,1931
1086,340,-135,-754,451,100,-1021,-1038,-1177,-1383,457,1932
1093,345,-137,-760,455,101,-1017,-1035,-1171,-1374,465,1938
1111,355,-145,-774,468,102,-1020,-1037,-1168,-1367,469,1940
1106,340,-155,-764,471,90,-1019,-1039,-1167,-1365,463,1934
1106,334,-161,-761,474,84,-1019,-1040,-1164,-1361,460,1931
1119,333,-175,-767,487,76,-1016,-1037,-1160,-1357,459,1930
1127,333,-183,-771,495,72,-1014,-1034,-1156,-1351,460,1932
1124,333,-180,-770,492,74,-1011,-1032,-1153,-1347,462,1933
1122,332,-179,-768,491,74,-1011,-1032,-1153,-1343,466,1936
1124,335,-178,-771,491,76,-1011,-1029,-1148,-1338,472,1941
1122,342,-169,-773,486,84,-1012,-1028,-1148,-1336,474,1943
1124,350,-163,-778,484,91,-1018,-1034,-1154,-1340,471,1939
1115,350,-154,-774,475,95,-1016,-1032,-1154,-1338,471,1938
1121,361,-149,-782,475,103,-1011,-1025,-1150,-1333,470,1938
1127,368,-148,-789,478,107,-1010,-1021,-1148,-1325,474,1943
1128,368,-149,-789,479,107,-1012,-1024,-1152,-1322,480,1948
1129,370,-148,-791,479,108,-1016,-1025,-1154,-1320,482,1951
1132,367,-154,-791,483,104,-1018,-1023,-1153,-1316,476,1947
1129,365,-153,-788,481,103,-1020,-1021,-1152,-1312,471,1942
1135,362,-162,-790,489,97,-1022,-1021,-1151,-1311,466,1938
1140,373,-156,-798,488,106,-1027,-1021,-1143,-1309,467,1942
1127,382,-134,-796,471,121,-1028,-1017,-1129,-1302,478,1955
1133,389,-133,-802,473,125,-1033,-1016,-1122,-1300,480,1954
1132,394,-127,-804,470,131,-1035,-1014,-1117,-1297,474,1948
1134,394,-129,-805,472,130,-1039,-1012,-1109,-1294,473,1948
1140,396,-133,-809,477,129,-1041,-1007,-1097,-1287,484,1959
1128,391,-126,-801,467,130,-1040,-1001,-1084,-1276,498,1972
1140,385,-144,-804,482,118,-1046,-1001,-1077,-1272,500,1974
1146,389,-146,-809,486,119,-1049,-997,-1066,-1260,506,1978
1143,390,-142,-808,483,121,-1041,-977,-1036,-1235,517,1989
1144,387,-146,-807,485,118,-1038,-960,-1008,-1217,522,1996
1151,381,-159,-807,495,108,-1039,-953,-995,-1207,530,2003
1164,369,-184,-808,514,90,-1040,-944,-992,-1195,537,2006
1173,356,-206,-806,530,72,-1044,-938,-990,-1187,539,2007
1175,359,-205,-808,530,74,-1044,-930,-984,-1180,549,2016
1182,378,-193,-821,528,90,-1044,-922,-976,-1174,554,2020
1193,395,-187,-835,530,101,-1052,-923,-978,-1174,546,2014
1184,410,-163,-838,514,121,-1057,-924,-979,-1170,541,2010
1186,419,-156,-844,511,129,-1060,-923,-979,-1163,538,2008
1201,432,-158,-858,520,134,-1066,-926,-983,-1159,533,2002
1204,432,-161,-859,523,133,-1068,-933,-991,-1164,530,2002
1187,437,-139,-853,503,146,-1070,-941,-1003,-1175,532,2006
1181,450,-120,-857,491,162,-1073,-951,-1020,-1189,528,2005
1182,451,-120,-858,491,163,-1079,-968,-1044,-1212,511,1992
1176,454,-111,-856,484,169,-1081,-985,-1067,-1234,501,1987
1166,445,-110,-847,478,165,-1079,-999,-1088,-1256,495,1982
1168,438,-119,-844,484,157,-1084,-1020,-1117,-1286,483,1976
1154,432,-111,-834,473,158,-1085,-1035,-1137,-1303,482,1977
1146,431,-104,-830,465,161,-1075,-1037,-1147,-1312,477,1972
1145,426,-108,-827,467,156,-1065,-1038,-1154,-1318,466,1968
1163,421,-131,-833,487,142,-1058,-1039,-1161,-1325,458,1962
1163,416,-136,-831,490,137,-1057,-1043,-1169,-1331,461,1962
1136,404,-121,-811,469,139,-1051,-1045,-1174,-1336,464,1962
1118,392,-115,-796,457,136,-1047,-1047,-1178,-1341,463,1963
1134,385,-138,-801,476,121,-1049,-1050,-1181,-1344,458,1963
1135,382,-142,-800,479,117,-1049,-1051,-1183,-1344,455,1966
1126,379,-136,-794,471,119,-1048,-1050,-1185,-1345,456,1962
1106,390,-105,-789,446,140,-1043,-1047,-1186,-1345,464,1966
1113,408,-94,-802,444,154,-1049,-1051,-1191,-1350,466,1969
1122,406,-105,-805,454,148,-1056,-1055,-1196,-1358,458,1960
1134,398,-125,-807,470,134,-1059,-1059,-1203,-1366,453,1950
1127,394,-122,-802,465,133,-1055,-1056,-1203,-1368,459,1958
1115,396,-108,-797,452,141,-1048,-1045,-1196,-1363,462,1968
1119,389,-119,-795,459,132,-1053,-1048,-1203,-1373,446,1954
1130,387,-132,-800,471,125,-1052,-1046,-1203,-1375,446,1952
1120,383,-126,-793,463,126,-1041,-1040,-1198,-1372,455,1957
1118,379,-128,-790,463,123,-1044,-1043,-1203,-1376,459,1958
1112,367,-134,-781,463,114,-1042,-1042,-1205,-1376,461,1957
1105,362,-132,-775,459,112,-1035,-1039,-1202,-1373,466,1957
1113,367,-135,-781,464,113,-1037,-1038,-1201,-1375,454,1940
1124,370,-143,-788,474,111,-1041,-1040,-1204,-1378,443,1932
1129,368,-150,-790,480,106,-1040,-1040,-1203,-1376,453,1939
1135,362,-162,-790,489,97,-1041,-1042,-1203,-1377,461,1944
1137,365,-161,-792,489,99,-1040,-1042,-1198,-1381,465,1949
1124,369,-144,-788,474,110,-1037,-1040,-1193,-1385,470,1951
1086,347,-128,-758,447,107,-1036,-1038,-1190,-1392,457,1934
1108,347,-150,-769,469,96,-1039,-1039,-1188,-1395,442,1920
1125,371,-143,-789,474,111,-1027,-1025,-1171,-1381,462,1940
1122,387,-124,-796,463,129,-1019,-1018,-1162,-1372,475,1951
1108,366,-131,-778,460,115,-1026,-1030,-1169,-1379,476,1949
1100,360,-129,-771,455,113,-1030,-1036,-1173,-1382,476,1947
1117,383,-123,-791,460,127,-1022,-1027,-1164,-1376,463,1938
1130,396,-123,-804,467,134,-1017,-1022,-1156,-1369,458,1936
1122,378,-133,-791,468,120,-1023,-1028,-1159,-1370,463,1935
1127,370,-146,-790,477,109,-1027,-1029,-1159,-1367,473,1942
1131,373,-147,-793,479,110,-1029,-1031,-1162,-1367,468,1937
1123,381,-131,-793,467,122,-1032,-1033,-1164,-1366,472,1943
1132,383,-138,-799,475,120,-1037,-1037,-1165,-1368,461,1934
1138,366,-161,-793,490,100,-1039,-1039,-1169,-1371,450,1925
1118,370,-137,-785,468,114,-1030,-1030,-1165,-1365,458,1929
1120,390,-119,-796,460,133,-1026,-1022,-1159,-1354,479,1954
1122,383,-128,-794,465,125,-1024,-1021,-1160,-1352,482,1960
1117,381,-125,-790,461,125,-1026,-1024,-1164,-1354,479,1958
1123,380,-132,-793,468,121,-1031,-1030,-1168,-1355,472,1950
1127,372,-144,-791,476,111,-1035,-1036,-1175,-1360,459,1935
1127,362,-154,-786,481,101,-1037,-1038,-1176,-1361,457,1935
1130,370,-149,-791,480,108,-1036,-1034,-1169,-1353,470,1948
1133,386,-136,-801,475,122,-1036,-1032,-1165,-1347,481,1962
1116,389,-116,-794,456,134,-1037,-1034,-1165,-1344,478,1962
1123,386,-126,-796,465,127,-1040,-1035,-1163,-1339,472,1963
1133,380,-142,-798,478,116,-1047,-1042,-1165,-1339,464,1958
1143,374,-158,-800,491,105,-1049,-1044,-1163,-1334,471,1960
1140,375,-154,-799,487,108,-1046,-1040,-1157,-1327,480,1967
1135,380,-144,-799,480,115,-1053,-1047,-1160,-1327,480,1965
1144,385,-148,-806,486,116,-1064,-1058,-1167,-1331,471,1955
1147,383,-153,-806,490,112,-1066,-1057,-1165,-1330,463,1952
1133,377,-145,-796,479,113,-1068,-1053,-1161,-1329,452,1946
1140,380,-149,-801,485,113,-1076,-1051,-1154,-1324,463,1955
1149,372,-166,-802,498,100,-1084,-1049,-1150,-1319,485,1970
1172,369,-192,-812,522,86,-1093,-1054,-1152,-1322,490,1972
1174,350,-213,-803,534,66,-1091,-1055,-1153,-1325,486,1971
1160,319,-230,-781,535,42,-1084,-1053,-1154,-1327,486,1973
1156,282,-263,-760,550,7,-1071,-1044,-1150,-1325,488,1977
1170,245,-314,-749,582,-37,-1046,-1022,-1130,-1307,502,1990
1139,178,-350,-700,585,-89,-1012,-992,-1100,-1280,529,2013
1135,126,-398,-672,607,-139,-990,-971,-1079,-1261,544,2024
1129,112,-406,-662,608,-150,-969,-957,-1068,-1250,551,2028
1129,107,-411,-659,610,-155,-968,-963,-1075,-1256,542,2019
1136,118,-407,-668,612,-147,-970,-971,-1084,-1264,533,2009
1140,145,-384,-684,602,-122,-969,-970,-1086,-1269,527,1999
1111,149,-351,-671,571,-104,-970,-975,-1096,-1280,515,1985
1091,138,-342,-656,557,-105,-971,-983,-1107,-1294,494,1966
1100,154,-335,-668,558,-93,-975,-987,-1111,-1301,489,1962
1105,169,-325,-678,555,-81,-979,-994,-1117,-1312,485,1953
1101,184,-306,-684,544,-64,-978,-995,-1115,-1316,492,1954
1100,189,-300,-686,540,-58,-983,-1001,-1119,-1324,495,1955
1110,192,-307,-692,549,-60,-991,-1010,-1130,-1333,485,1945
1113,211,-291,-703,542,-43,-993,-1012,-1135,-1338,481,1942
1113,215,-287,-705,540,-39,-996,-1014,-1141,-1343,477,1939
1106,224,-271,-706,529,-26,-1002,-1019,-1150,-1351,471,1934
1104,237,-256,-712,520,-12,-1009,-1026,-1158,-1359,464,1928
1111,250,-250,-722,521,-3,-1014,-1032,-1168,-1371,449,1914
1099,256,-232,-719,506,9,-1005,-1026,-1170,-1379,431,1896
1088,277,-200,-724,484,36,-992,-1022,-1168,-1386,419,1882
1079,304,-164,-733,462,67,-975,-1015,-1166,-1388,418,1874
1079,317,-151,-739,455,80,-971,-1006,-1165,-1387,410,1861
1096,338,-147,-758,462,93,-977,-996,-1156,-1372,413,1862
1115,385,-119,-791,457,130,-983,-971,-1118,-1323,444,1889
1165,447,-107,-847,476,167,-994,-921,-1037,-1228,507,1947
1242,509,-122,-917,522,191,-1035,-876,-947,-1119,590,2030
1312,576,-125,-985,559,223,-1091,-846,-871,-1021,671,2118
1392,627,-154,-1051,613,234,-1143,-819,-812,-947,734,2190
1419,647,-161,-1074,630,241,-1174,-832,-799,-924,757,2229
1352,667,-74,-1051,553,294,-1189,-921,-878,-988,743,2237
1276,647,-18,-1003,487,312,-1182,-1027,-1029,-1133,692,2201
1220,517,-92,-910,496,210,-1118,-1045,-1142,-1287,553,2070
1185,399,-175,-833,520,109,-1044,-1009,-1192,-1388,414,1932
1186,398,-177,-833,522,108,-1018,-1005,-1211,-1422,373,1886
1166,422,-133,-835,490,142,-1020,-1036,-1235,-1449,360,1870
1131,455,-65,-834,438,192,-1035,-1074,-1261,-1474,351,1858
1117,475,-31,-837,414,219,-1061,-1099,-1272,-1485,350,1851
1106,454,-41,-821,414,204,-1067,-1103,-1263,-1476,360,1852
1125,444,-70,-826,438,184,-1052,-1091,-1239,-1452,385,1868
1141,439,-91,-831,456,171,-1034,-1072,-1214,-1430,406,1884
1116,402,-103,-800,450,147,-1030,-1069,-1207,-1425,409,1884
1098,377,-110,-779,444,131,-1024,-1063,-1201,-1419,414,1887
1106,368,-127,-778,457,118,-1024,-1060,-1199,-1414,415,1887
1103,351,-141,-768,462,102,-1023,-1059,-1199,-1414,414,1886
1107,342,-154,-766,471,91,-1022,-1058,-1199,-1413,411,1884
1117,349,-157,-774,477,93,-1018,-1053,-1193,-1408,409,1881
1106,342,-153,-765,470,92,-1015,-1050,-1188,-1402,412,1882
1112,339,-162,-767,477,86,-1014,-1046,-1180,-1394,420,1890
1116,343,-162,-771,479,88,-1015,-1044,-1177,-1389,432,1897
1114,348,-155,-772,475,94,-1014,-1042,-1175,-1388,435,1897
1115,342,-162,-770,479,87,-1020,-1049,-1183,-1396,428,1890
1104,324,-169,-755,477,75,-1026,-1055,-1191,-1405,418,1880
1099,328,-160,-755,470,81,-1024,-1050,-1186,-1401,418,1884
1109,336,-162,-764,476,84,-1021,-1044,-1181,-1397,421,1889
1114,330,-173,-763,484,76,-1022,-1044,-1184,-1399,423,1885
1122,336,-175,-770,489,78,-1021,-1041,-1183,-1395,421,1883
1130,335,-184,-774,497,73,-1019,-1039,-1179,-1392,423,1890
1126,323,-192,-766,499,63,-1016,-1038,-1180,-1391,436,1899
1122,323,-188,-764,495,65,-1012,-1038,-1180,-1390,448,1905
1130,338,-181,-775,496,76,-1012,-1038,-1179,-1388,457,1910
1126,342,-173,-775,490,82,-1014,-1037,-1175,-1386,456,1909
1120,340,-169,-771,485,83,-1009,-1033,-1171,-1380,455,1908
1130,338,-181,-775,496,76,-1013,-1035,-1176,-1382,450,1901
1135,331,-193,-774,504,66,-1017,-1038,-1185,-1387,444,1897
1129,330,-188,-771,499,68,-1015,-1033,-1185,-1383,443,1898
1114,334,-169,-765,482,80,-1011,-1029,-1185,-1378,445,1902
1130,341,-178,-777,494,79,-1016,-1032,-1185,-1379,445,1902
1148,340,-197,-785,513,69,-1026,-1038,-1187,-1382,433,1890
1137,338,-188,-779,503,72,-1027,-1037,-1179,-1376,431,1890
1119,338,-170,-770,485,81,-1018,-1025,-1166,-1360,440,1898
1131,344,-176,-779,494,81,-1018,-1023,-1165,-1353,438,1899
1139,338,-190,-780,505,71,-1022,-1023,-1164,-1347,447,1906
1142,331,-200,-778,511,63,-1028,-1024,-1163,-1341,455,1910
1145,343,-191,-785,508,73,-1028,-1018,-1154,-1326,464,1917
1141,347,-183,-785,502,79,-1026,-1011,-1142,-1312,467,1920
1136,336,-189,-777,503,71,-1029,-1008,-1136,-1304,469,1923
1152,341,-200,-788,516,68,-1030,-1006,-1133,-1295,475,1929
1189,370,-208,-821,539,78,-1027,-995,-1122,-1276,483,1938
1181,369,-201,-816,531,81,-1029,-990,-1114,-1266,490,1942
1173,363,-199,-809,526,79,-1029,-984,-1102,-1254,499,1950
1178,368,-199,-814,529,82,-1033,-979,-1093,-1245,506,1959
1180,365,-204,-814,532,78,-1034,-971,-1081,-1238,508,1962
1182,363,-208,-814,535,75,-1033,-962,-1070,-1233,514,1968
1179,363,-205,-812,532,76,-1039,-962,-1066,-1234,516,1971
1192,376,-205,-825,539,83,-1041,-958,-1062,-1233,516,1973
1213,394,-208,-845,551,90,-1047,-958,-1061,-1234,513,1971
1212,384,-217,-839,555,81,-1053,-961,-1067,-1239,502,1963
1198,386,-201,-833,540,90,-1049,-956,-1065,-1237,506,1968
1191,387,-193,-830,532,94,-1048,-957,-1069,-1241,504,1969
1202,386,-205,-835,544,88,-1059,-972,-1087,-1258,488,1959
1200,389,-200,-836,540,92,-1058,-978,-1095,-1268,485,1957
1205,399,-195,-843,540,99,-1054,-985,-1105,-1279,485,1959
1195,405,-179,-841,527,110,-1053,-996,-1121,-1296,476,1952
1180,396,-173,-829,517,109,-1048,-1003,-1131,-1308,476,1956
1167,379,-177,-814,512,98,-1045,-1013,-1143,-1323,478,1961
1146,362,-173,-795,500,92,-1038,-1017,-1150,-1333,481,1967
1156,362,-183,-800,510,87,-1037,-1022,-1158,-1344,478,1962
1173,358,-204,-807,529,74,-1040,-1032,-1170,-1359,466,1947
1156,351,-194,-795,515,76,-1031,-1030,-1171,-1360,461,1942
1129,341,-177,-776,493,79,-1018,-1024,-1167,-1352,467,1947
1137,344,-182,-782,500,78,-1022,-1031,-1174,-1355,459,1940
1137,336,-190,-778,504,70,-1018,-1033,-1176,-1355,454,1936
1126,331,-184,-770,495,71,-1013,-1033,-1176,-1355,454,1934
1128,328,-189,-769,499,67,-1016,-1037,-1179,-1359,453,1932
1132,325,-196,-770,504,62,-1018,-1041,-1182,-1363,450,1930
1132,320,-201,-767,507,57,-1016,-1041,-1183,-1363,445,1925
1134,324,-199,-770,507,60,-1017,-1043,-1185,-1366,441,1919
1133,327,-195,-771,504,63,-1014,-1041,-1184,-1366,440,1919
1119,320,-188,-761,494,63,-1008,-1038,-1184,-1366,440,1916
1128,327,-190,-769,499,66,-1009,-1041,-1186,-1369,443,1920
1119,324,-184,-763,492,67,-1009,-1043,-1187,-1370,446,1923
1123,316,-196,-761,500,57,-1009,-1043,-1190,-1372,444,1920
1128,318,-199,-764,504,57,-1009,-1040,-1189,-1371,443,1918
1126,313,-202,-761,504,53,-1010,-1043,-1192,-1374,435,1908
1142,323,-208,-774,515,55,-1012,-1043,-1192,-1372,434,1908
1131,324,-196,-769,504,61,-1008,-1044,-1192,-1372,435,1909
1121,318,-192,-761,497,60,-1008,-1046,-1195,-1374,433,1909
1124,321,-192,-764,498,62,-1008,-1046,-1197,-1375,438,1912
1127,323,-193,-766,500,62,-1011,-1046,-1194,-1372,443,1916
1117,321,-185,-760,491,65,-1010,-1048,-1196,-1375,441,1914
1120,314,-195,-758,498,57,-1005,-1045,-1192,-1371,443,1915
1128,324,-193,-767,501,63,-1008,-1046,-1192,-1368,453,1921
1131,331,-189,-772,500,68,-1009,-1047,-1192,-1368,455,1920
1129,327,-191,-769,500,65,-1008,-1049,-1192,-1370,453,1922
1123,315,-197,-760,500,56,-1006,-1050,-1195,-1372,450,1919
1122,310,-201,-757,502,52,-1004,-1047,-1193,-1371,452,1918
1121,311,-199,-757,500,53,-1001,-1047,-1192,-1371,452,1916
1122,311,-200,-758,501,53,-1003,-1049,-1194,-1370,453,1916
1128,307,-210,-759,509,46,-1001,-1048,-1194,-1369,450,1911
1129,305,-213,-758,511,43,-994,-1043,-1192,-1366,449,1908
1133,308,-214,-762,514,44,-992,-1042,-1196,-1366,447,1904
1131,313,-207,-763,509,50,-989,-1041,-1195,-1363,449,1906
1126,311,-204,-760,505,51,-985,-1037,-1191,-1359,456,1912
1133,306,-216,-761,515,42,-987,-1038,-1190,-1361,457,1912
1131,293,-227,-753,519,30,-986,-1038,-1191,-1362,452,1906
1121,290,-220,-747,511,32,-989,-1041,-1195,-1365,450,1906
1127,291,-225,-750,516,30,-985,-1032,-1188,-1359,461,1923
1139,291,-237,-756,528,24,-983,-1027,-1182,-1359,469,1932
1143,284,-248,-755,536,15,-984,-1027,-1181,-1365,469,1932
1136,259,-266,-739,541,-6,-989,-1030,-1183,-1376,457,1925
1132,257,-264,-736,538,-6,-991,-1031,-1184,-1383,456,1926
1119,259,-249,-730,524,2,-983,-1025,-1179,-1383,460,1931
1109,273,-225,-732,507,21,-974,-1012,-1165,-1374,474,1947
1118,295,-212,-748,505,39,-976,-1006,-1161,-1370,480,1955
1119,302,-206,-752,503,45,-985,-1013,-1168,-1377,473,1950
1120,300,-209,-751,505,43,-993,-1018,-1173,-1383,470,1947
1127,303,-213,-756,510,42,-1000,-1018,-1173,-1384,472,1950
1139,319,-209,-770,514,52,-1010,-1018,-1174,-1386,474,1950
1148,325,-212,-778,520,54,-1013,-1017,-1174,-1386,472,1947
1140,328,-201,-775,511,61,-1011,-1015,-1170,-1383,478,1955
1149,332,-206,-782,518,60,-1012,-1015,-1165,-1380,486,1963
1145,333,-201,-780,513,63,-1017,-1021,-1163,-1380,489,1965
1126,326,-189,-767,498,66,-1023,-1027,-1163,-1380,488,1961
1122,327,-184,-766,493,69,-1029,-1034,-1166,-1382,485,1957
1130,325,-194,-769,502,63,-1033,-1037,-1163,-1383,483,1954
1130,324,-195,-768,503,62,-1034,-1036,-1159,-1377,489,1958
1131,327,-193,-770,502,64,-1036,-1033,-1157,-1372,498,1968
1152,335,-206,-785,519,62,-1045,-1037,-1161,-1374,502,1972
1160,328,-221,-785,531,51,-1045,-1043,-1169,-1379,498,1969
1155,320,-224,-779,530,45,-1035,-1046,-1174,-1384,495,1966
1154,302,-241,-769,538,28,-1031,-1051,-1183,-1394,482,1956
1164,300,-253,-773,549,21,-1027,-1056,-1191,-1401,474,1947
1158,305,-242,-773,540,29,-1020,-1053,-1188,-1395,474,1946
1160,314,-235,-778,538,37,-1009,-1045,-1175,-1382,481,1951
1164,323,-230,-785,537,44,-995,-1039,-1164,-1371,489,1961
1133,315,-207,-765,510,51,-978,-1036,-1159,-1367,487,1958
1112,301,-200,-748,496,48,-965,-1032,-1154,-1363,480,1950
1113,295,-207,-745,500,41,-962,-1032,-1153,-1362,475,1944
1120,294,-215,-748,508,37,-963,-1035,-1157,-1363,469,1940
1123,296,-216,-751,510,37,-962,-1036,-1158,-1362,468,1938
1116,291,-214,-745,505,36,-961,-1034,-1158,-1360,462,1930
1102,278,-213,-731,498,30,-956,-1030,-1157,-1358,458,1925
1116,281,-224,-740,510,26,-955,-1025,-1154,-1354,463,1929
1127,286,-230,-748,519,25,-955,-1023,-1155,-1351,467,1933
1113,284,-218,-740,506,30,-956,-1026,-1160,-1352,466,1933
1106,282,-213,-735,500,32,-957,-1027,-1163,-1352,464,1930
1114,285,-218,-741,506,31,-962,-1029,-1168,-1352,457,1925
1109,287,-211,-739,500,35,-963,-1027,-1173,-1351,455,1924
1097,284,-202,-732,490,38,-963,-1027,-1176,-1352,452,1924
1097,286,-200,-733,489,40,-960,-1022,-1176,-1350,451,1925
1093,279,-203,-727,488,35,-949,-1011,-1173,-1350,445,1915
1076,262,-203,-710,480,27,-934,-1001,-1164,-1348,437,1903
1063,261,-191,-703,467,32,-919,-992,-1149,-1342,439,1900
1053,267,-175,-701,454,43,-906,-975,-1128,-1329,450,1905
1055,273,-171,-705,453,48,-901,-956,-1103,-1308,457,1908
1084,301,-172,-734,468,62,-905,-930,-1061,-1264,484,1933
1138,348,-179,-784,499,82,-921,-893,-993,-1186,533,1974
1211,393,-207,-843,549,90,-960,-848,-913,-1091,589,2028
1287,449,-227,-909,597,109,-1016,-813,-840,-993,663,2107
1373,499,-263,-977,658,116,-1072,-772,-770,-906,726,2180
1445,498,-336,-1013,731,79,-1115,-738,-710,-845,761,2231
1418,493,-314,-997,706,87,-1136,-790,-728,-858,770,2257
1329,488,-230,-950,620,127,-1132,-901,-844,-964,750,2249
1244,409,-224,-868,574,90,-1081,-956,-969,-1107,658,2163
1203,266,-326,-776,605,-33,-1005,-935,-1050,-1248,496,2009
1175,218,-346,-738,601,-67,-965,-915,-1070,-1297,439,1948
1156,231,-314,-735,575,-44,-959,-938,-1089,-1311,445,1949
1132,256,-265,-735,539,-7,-974,-975,-1114,-1329,455,1958
1128,273,-244,-742,526,12,-1005,-1011,-1141,-1352,448,1948
1129,286,-232,-749,521,24,-1023,-1037,-1158,-1365,441,1938
1121,298,-212,-751,507,40,-1020,-1042,-1160,-1363,443,1935
1097,316,-170,-748,474,70,-1008,-1037,-1154,-1356,453,1940
1085,333,-141,-750,453,93,-1006,-1039,-1156,-1358,451,1935
1088,344,-133,-757,451,103,-1010,-1046,-1167,-1365,445,1930
1090,355,-124,-764,447,113,-1012,-1050,-1175,-1368,443,1930
1086,363,-112,-766,439,123,-1007,-1048,-1178,-1367,445,1931
1077,365,-101,-762,429,129,-1000,-1043,-1176,-1361,452,1937
1073,352,-110,-754,432,118,-995,-1042,-1177,-1357,456,1941
1090,345,-134,-759,452,103,-990,-1037,-1174,-1352,456,1944
1087,337,-139,-753,453,96,-980,-1031,-1170,-1345,465,1954
1081,332,-138,-748,450,94,-972,-1028,-1169,-1343,464,1948
1091,324,-156,-749,464,81,-974,-1029,-1171,-1343,463,1943
1095,326,-158,-752,467,81,-979,-1036,-1175,-1347,467,1951
1091,326,-154,-750,463,83,-976,-1039,-1174,-1346,466,1953
1096,333,-152,-756,464,88,-972,-1038,-1171,-1344,469,1955
1094,327,-156,-752,465,83,-969,-1036,-1169,-1342,478,1959
1094,322,-161,-749,468,78,-968,-1034,-1167,-1339,476,1950
1094,330,-153,-753,464,86,-969,-1034,-1167,-1338,479,1957
1093,345,-137,-760,455,101,-972,-1033,-1166,-1336,483,1961
1074,337,-126,-747,440,103,-973,-1031,-1172,-1338,474,1950
1090,345,-134,-759,452,103,-981,-1037,-1182,-1344,467,1945
1118,358,-149,-779,474,102,-984,-1036,-1177,-1342,473,1950
1112,357,-144,-776,468,104,-982,-1029,-1170,-1338,480,1958
1110,354,-145,-773,468,102,-992,-1033,-1179,-1348,470,1946
1115,339,-165,-768,480,84,-1002,-1036,-1183,-1355,456,1931
1116,350,-155,-774,476,95,-998,-1024,-1171,-1349,458,1934
1085,345,-129,-756,447,105,-989,-1012,-1158,-1341,468,1948
1094,346,-137,-761,456,102,-994,-1012,-1158,-1342,479,1953
1123,354,-158,-780,481,95,-998,-1010,-1155,-1343,492,1961
1102,346,-145,-765,464,98,-994,-1005,-1148,-1341,501,1969
1094,339,-144,-758,459,95,-998,-1007,-1145,-1343,511,1976
1121,355,-155,-779,478,97,-998,-1003,-1139,-1341,521,1981
1141,377,-153,-800,487,109,-994,-994,-1127,-1332,522,1979
1102,370,-121,-777,452,122,-986,-986,-1116,-1323,517,1974
1114,381,-122,-789,458,127,-989,-981,-1108,-1318,511,1967
1122,378,-133,-791,468,120,-986,-975,-1097,-1309,509,1970
1113,368,-134,-782,464,114,-985,-971,-1089,-1301,515,1977
1121,386,-124,-795,463,128,-987,-967,-1078,-1289,528,1986
1138,389,-138,-805,478,123,-985,-960,-1068,-1281,533,1988
1151,378,-162,-806,497,105,-990,-960,-1065,-1280,529,1981
1152,398,-143,-816,488,125,-995,-954,-1054,-1268,537,1987
1147,412,-124,-821,476,141,-990,-939,-1036,-1252,534,1985
1147,406,-130,-818,479,135,-990,-928,-1024,-1240,538,1987
1146,417,-118,-823,472,147,-993,-921,-1015,-1231,553,1997
1164,432,-121,-839,483,153,-1003,-922,-1012,-1229,549,1991
1171,430,-130,-842,491,147,-1007,-917,-1006,-1224,546,1984
1169,421,-137,-836,493,139,-1007,-910,-999,-1216,551,1991
1168,425,-132,-838,490,144,-1013,-909,-998,-1215,545,1988
1170,430,-129,-841,490,148,-1017,-908,-996,-1211,548,1993
1170,429,-130,-841,490,147,-1021,-911,-1000,-1211,548,1990
1172,415,-146,-835,499,132,-1020,-913,-1007,-1215,537,1982
1178,424,-143,-842,501,138,-1027,-924,-1020,-1224,538,1986
1185,431,-143,-849,504,141,-1035,-937,-1035,-1234,536,1985
1181,427,-143,-845,502,139,-1032,-942,-1046,-1243,539,1993
1163,425,-127,-835,485,146,-1029,-955,-1064,-1258,540,1997
1161,410,-140,-827,491,132,-1029,-971,-1085,-1277,528,1989
1158,390,-157,-815,498,114,-1028,-984,-1103,-1291,516,1981
1149,380,-158,-806,494,108,-1024,-993,-1119,-1304,497,1966
1148,384,-153,-807,491,113,-1022,-1005,-1132,-1312,486,1964
1150,376,-163,-804,497,104,-1024,-1019,-1145,-1321,477,1958
1148,357,-180,-794,504,86,-1017,-1024,-1148,-1323,479,1962
1121,351,-159,-777,480,93,-1002,-1018,-1137,-1312,492,1975
1109,347,-151,-769,470,95,-1003,-1027,-1142,-1314,488,1974
1108,332,-165,-761,477,81,-1003,-1035,-1142,-1317,479,1968
1121,327,-183,-765,492,69,-1001,-1036,-1136,-1318,469,1961
1134,320,-203,-768,509,56,-1001,-1038,-1131,-1316,467,1959
1126,301,-214,-755,510,41,-993,-1033,-1124,-1312,468,1959
1110,276,-223,-734,507,24,-982,-1023,-1116,-1307,472,1965
1123,270,-242,-738,523,11,-982,-1019,-1114,-1306,476,1968
1141,241,-289,-732,555,-27,-965,-998,-1092,-1292,492,1986
1119,176,-332,-689,566,-81,-940,-973,-1064,-1275,510,2005
1107,97,-399,-643,593,-154,-916,-949,-1044,-1258,531,2025
1120,47,-462,-625,631,-210,-890,-920,-1021,-1235,560,2056
1125,19,-495,-613,650,-241,-887,-918,-1024,-1235,564,2059
1128,7,-510,-609,659,-254,-895,-924,-1037,-1242,560,2055
1137,20,-506,-620,662,-246,-901,-930,-1049,-1251,549,2044
1137,43,-483,-631,650,-223,-906,-933,-1057,-1257,543,2037
1108,60,-437,-625,613,-191,-909,-938,-1066,-1263,542,2036
1105,97,-397,-642,591,-153,-919,-950,-1079,-1273,540,2035
1109,123,-375,-657,582,-129,-928,-960,-1091,-1285,525,2016
1112,149,-352,-672,572,-104,-936,-964,-1095,-1291,520,2011
1122,159,-352,-682,577,-99,-947,-972,-1104,-1306,505,1997
1109,159,-339,-675,564,-93,-950,-975,-1112,-1318,499,1991
1104,184,-309,-685,547,-65,-954,-977,-1116,-1325,504,1998
1106,205,-290,-697,538,-45,-962,-984,-1121,-1334,509,2001
1111,226,-274,-710,533,-27,-968,-985,-1126,-1340,514,2004
1117,246,-260,-723,529,-10,-968,-983,-1125,-1342,515,2003
1124,254,-259,-730,532,-5,-976,-990,-1129,-1353,501,1991
1120,267,-242,-735,521,10,-981,-996,-1147,-1362,494,1984
1113,286,-216,-741,505,32,-984,-1002,-1168,-1371,491,1980
1117,302,-204,-751,501,46,-992,-1010,-1167,-1379,485,1976
1124,318,-195,-762,500,59,-1002,-1020,-1165,-1389,472,1965
1118,337,-170,-769,484,81,-1007,-1028,-1182,-1399,464,1959
1115,351,-153,-774,474,96,-1015,-1039,-1197,-1417,454,1950
1121,365,-145,-784,473,107,-1021,-1046,-1212,-1436,443,1941
1118,375,-132,-788,465,119,-1023,-1049,-1234,-1447,439,1940
1115,385,-119,-791,457,130,-1027,-1055,-1247,-1456,437,1938
1130,399,-120,-806,465,137,-1028,-1057,-1254,-1460,432,1932
1145,411,-123,-819,474,141,-1020,-1048,-1254,-1454,434,1934
1127,407,-109,-808,458,146,-1011,-1041,-1252,-1449,438,1937
1127,410,-106,-810,457,149,-1005,-1037,-1246,-1441,450,1949
1123,399,-113,-802,458,140,-1003,-1036,-1242,-1435,451,1949
1119,382,-126,-792,463,125,-1003,-1039,-1242,-1432,441,1938
1117,375,-131,-787,464,119,-1004,-1040,-1242,-1424,435,1932
1126,381,-134,-795,470,121,-1006,-1045,-1251,-1418,435,1931
1123,390,-122,-798,463,131,-1006,-1047,-1264,-1408,442,1935
1102,393,-98,-789,440,145,-1001,-1043,-1264,-1402,443,1933
1110,412,-87,-802,439,160,-1002,-1042,-1262,-1396,446,1935
1132,428,-93,-821,453,165,-1002,-1039,-1240,-1389,438,1926
1131,426,-94,-820,453,163,-1010,-1043,-1219,-1388,428,1912
1121,434,-76,-819,439,176,-1015,-1046,-1206,-1386,427,1910
1137,449,-77,-834,447,183,-1022,-1050,-1199,-1388,418,1900
1146,466,-69,-847,448,196,-1027,-1054,-1193,-1391,418,1900
1133,490,-32,-853,423,226,-1026,-1053,-1184,-1390,431,1910
1133,512,-10,-864,412,248,-1032,-1058,-1184,-1391,441,1913
1143,509,-23,-867,423,240,-1041,-1062,-1188,-1395,438,1906
1153,491,-51,-863,442,217,-1044,-1060,-1185,-1393,427,1896
1158,467,-80,-854,459,191,-1049,-1054,-1177,-1384,427,1901
1162,442,-109,-843,476,164,-1055,-1049,-1169,-1371,451,1923
1180,433,-136,-848,498,146,-1061,-1047,-1166,-1363,472,1939
1171,421,-139,-837,495,138,-1053,-1044,-1166,-1361,482,1944
1142,409,-122,-817,472,141,-1039,-1039,-1168,-1363,486,1948
1148,395,-142,-813,485,124,-1038,-1044,-1183,-1375,472,1940
1155,386,-158,-812,497,111,-1035,-1047,-1194,-1386,458,1929
1149,386,-152,-809,491,114,-1035,-1049,-1200,-1391,456,1927
1147,376,-160,-803,494,105,-1037,-1052,-1207,-1392,447,1919
1138,372,-155,-796,487,106,-1021,-1045,-1206,-1385,443,1915
1136,385,-140,-802,478,120,-1004,-1035,-1203,-1375,444,1918
1120,375,-134,-789,467,118,-993,-1033,-1204,-1372,444,1915
1132,378,-143,-796,478,115,-988,-1031,-1204,-1370,450,1916
1141,363,-167,-793,494,95,-990,-1034,-1212,-1379,440,1904
1142,352,-179,-788,501,84,-989,-1038,-1216,-1389,426,1891
1120,347,-162,-775,481,90,-975,-1031,-1202,-1387,425,1892
1107,339,-157,-764,472,88,-969,-1025,-1184,-1384,430,1893
1102,334,-157,-759,470,86,-967,-1021,-1165,-1378,436,1895
1106,335,-160,-762,473,85,-972,-1025,-1164,-1379,426,1890
1117,332,-174,-766,486,76,-976,-1027,-1168,-1381,410,1881
1113,320,-182,-758,488,66,-977,-1028,-1170,-1380,412,1882
1111,325,-175,-759,483,72,-974,-1027,-1168,-1375,426,1891
1101,334,-156,-759,469,86,-967,-1021,-1160,-1368,440,1901
1110,338,-161,-765,476,86,-969,-1024,-1167,-1370,439,1901
1113,324,-178,-760,486,70,-968,-1029,-1187,-1376,430,1892
1082,298,-173,-731,468,60,-951,-1019,-1198,-1380,412,1874
1052,301,-140,-718,436,78,-926,-1000,-1193,-1374,406,1868
1068,330,-127,-740,438,99,-907,-987,-1186,-1367,401,1861
1073,336,-126,-746,440,102,-898,-973,-1170,-1349,407,1861
1100,340,-149,-761,465,93,-898,-953,-1143,-1321,414,1865
1123,366,-146,-786,475,107,-902,-918,-1089,-1257,460,1903
1160,414,-135,-828,488,137,-918,-867,-1004,-1156,536,1971
1252,475,-166,-905,549,152,-969,-831,-926,-1055,606,2043
1356,541,-204,-990,620,166,-1027,-801,-855,-963,680,2127
1431,582,-238,-1048,675,170,-1074,-767,-793,-886,747,2205
1447,585,-251,-1057,689,165,-1106,-773,-779,-862,767,2242
1390,586,-193,-1029,632,194,-1120,-857,-856,-928,743,2242
1296,542,-143,-960,560,197,-1105,-948,-992,-1062,693,2208
1241,402,-228,-863,575,85,-1032,-953,-1094,-1202,564,2084
1205,285,-309,-786,597,-15,-956,-918,-1137,-1291,445,1964
1172,250,-311,-752,582,-33,-929,-914,-1152,-1316,415,1929
1136,254,-271,-736,544,-11,-932,-950,-1183,-1337,416,1925
1133,282,-240,-749,527,18,-948,-986,-1206,-1355,419,1927
1129,300,-218,-756,514,38,-966,-1003,-1210,-1357,425,1934
1118,307,-200,-754,499,51,-964,-1005,-1201,-1348,437,1942
1129,331,-187,-771,498,69,-956,-1002,-1193,-1342,449,1948
1134,350,-173,-783,494,86,-950,-998,-1185,-1338,463,1955
1116,350,-155,-774,476,95,-948,-1005,-1186,-1342,461,1946
1121,340,-170,-772,486,82,-952,-1012,-1191,-1347,445,1931
1121,333,-177,-768,489,75,-955,-1017,-1194,-1349,435,1921
1108,327,-170,-759,479,76,-951,-1015,-1189,-1346,437,1921
1116,336,-169,-767,483,81,-950,-1018,-1189,-1344,437,1918
1118,353,-154,-777,476,97,-942,-1013,-1181,-1336,444,1922
1114,340,-163,-768,479,86,-942,-1012,-1181,-1335,440,1921
1106,333,-162,-761,474,83,-938,-1013,-1183,-1334,440,1922
1115,341,-163,-769,479,86,-940,-1017,-1187,-1335,441,1924
1106,335,-160,-762,473,85,-939,-1018,-1184,-1334,445,1924
1121,342,-168,-773,485,84,-943,-1018,-1183,-1334,443,1921
1109,349,-149,-770,469,97,-936,-1012,-1175,-1328,448,1927
1115,346,-158,-772,477,91,-938,-1014,-1173,-1327,449,1927
1114,335,-168,-766,481,81,-935,-1013,-1170,-1326,444,1921
1119,339,-169,-770,484,82,-932,-1010,-1169,-1324,448,1924
1125,352,-162,-780,484,92,-933,-1011,-1168,-1325,452,1929
1117,349,-157,-774,477,93,-925,-1006,-1162,-1322,449,1923
1118,346,-161,-773,480,90,-926,-1006,-1163,-1324,444,1915
1125,354,-160,-781,483,94,-930,-1011,-1167,-1327,444,1915
1124,356,-157,-781,481,97,-929,-1010,-1168,-1329,439,1913
1126,366,-149,-787,478,106,-927,-1005,-1164,-1324,440,1916
1137,366,-160,-793,489,100,-927,-1005,-1165,-1324,443,1915
1127,348,-168,-779,488,87,-924,-1005,-1166,-1325,447,1915
1118,345,-162,-773,480,89,-924,-1006,-1167,-1324,456,1922
1126,355,-160,-782,483,95,-924,-1004,-1164,-1319,465,1928
1127,351,-165,-780,486,90,-922,-1000,-1160,-1316,464,1929
1130,351,-168,-782,489,89,-922,-998,-1158,-1315,462,1929
1126,358,-157,-783,482,98,-925,-1001,-1157,-1313,466,1933
1131,353,-167,-783,489,90,-922,-996,-1152,-1308,468,1934
1136,350,-175,-784,496,85,-920,-993,-1150,-1303,467,1933
1135,341,-183,-779,499,76,-915,-986,-1145,-1296,467,1932
1134,349,-174,-783,494,85,-911,-982,-1142,-1291,470,1934
1141,349,-181,-786,501,81,-907,-974,-1134,-1283,475,1938
1149,352,-186,-792,508,80,-908,-971,-1130,-1277,483,1944
1156,354,-191,-796,514,79,-904,-965,-1124,-1271,487,1945
1156,351,-194,-795,515,76,-905,-963,-1119,-1266,488,1941
1155,340,-204,-789,520,65,-904,-958,-1111,-1258,487,1939
1156,344,-201,-791,519,69,-903,-951,-1096,-1248,490,1943
1180,356,-213,-809,537,69,-901,-942,-1078,-1235,494,1946
1185,350,-224,-809,545,60,-896,-931,-1063,-1221,505,1953
1179,334,-234,-798,547,47,-898,-927,-1055,-1214,509,1953
1180,336,-233,-799,547,49,-900,-921,-1044,-1206,514,1955
1185,340,-234,-804,550,50,-896,-911,-1031,-1194,519,1960
1186,336,-239,-802,553,46,-894,-904,-1023,-1185,523,1966
1201,340,-250,-812,566,42,-894,-898,-1015,-1180,525,1972
1222,351,-260,-828,581,43,-896,-894,-1011,-1176,530,1978
1219,346,-262,-824,581,39,-899,-894,-1014,-1180,530,1980
1219,343,-265,-822,582,36,-905,-897,-1015,-1186,530,1981
1220,343,-266,-823,583,36,-908,-901,-1020,-1196,527,1979
1196,339,-246,-809,561,44,-908,-905,-1026,-1206,525,1982
1182,324,-247,-794,555,36,-908,-912,-1038,-1218,522,1987
1173,330,-232,-793,543,46,-916,-927,-1057,-1238,522,1992
1172,348,-213,-801,533,65,-923,-941,-1076,-1258,522,1993
1171,353,-207,-803,529,70,-928,-952,-1096,-1281,510,1982
1164,367,-186,-807,515,88,-936,-968,-1118,-1306,500,1976
1147,375,-161,-802,494,104,-940,-982,-1135,-1328,491,1969
1144,372,-161,-799,493,103,-944,-994,-1152,-1346,483,1962
1144,368,-165,-797,495,99,-942,-999,-1161,-1355,480,1962
1126,346,-169,-777,488,86,-940,-1005,-1170,-1365,472,1956
1119,340,-168,-771,484,83,-941,-1012,-1179,-1373,469,1953
1138,348,-179,-784,499,82,-940,-1014,-1182,-1379,467,1951
1137,338,-188,-779,503,72,-938,-1015,-1187,-1385,463,1948
1120,330,-179,-766,490,73,-935,-1016,-1192,-1387,464,1948
1119,326,-182,-764,491,69,-937,-1019,-1195,-1391,464,1946
1128,320,-197,-765,503,59,-937,-1018,-1190,-1392,464,1945
1119,309,-199,-755,499,52,-930,-1012,-1185,-1388,469,1948
1105,299,-195,-743,490,49,-927,-1009,-1182,-1387,471,1948
1098,288,-199,-734,489,42,-927,-1011,-1181,-1387,464,1941
1109,283,-215,-737,502,31,-927,-1012,-1180,-1387,457,1933
1121,293,-217,-748,509,35,-927,-1011,-1177,-1383,457,1933
1122,294,-217,-749,510,36,-924,-1008,-1172,-1377,459,1936
1125,293,-221,-750,513,33,-919,-1004,-1164,-1370,461,1937
1120,300,-209,-751,505,43,-915,-1001,-1158,-1362,465,1939
1125,308,-206,-758,506,48,-914,-1002,-1157,-1359,465,1936
1123,301,-211,-753,507,42,-911,-1001,-1153,-1358,461,1931
1130,302,-217,-757,514,40,-910,-1001,-1150,-1356,456,1927
1126,302,-213,-755,510,42,-909,-1001,-1147,-1354,454,1930
1118,308,-199,-754,499,52,-910,-1001,-1144,-1351,457,1934
1117,306,-200,-753,499,50,-913,-1001,-1142,-1347,456,1933
1116,303,-202,-751,499,48,-915,-1003,-1143,-1346,458,1933
1121,308,-202,-756,502,50,-916,-1003,-1143,-1343,459,1934
1124,311,-202,-759,503,52,-918,-1001,-1141,-1339,455,1930
1124,308,-205,-757,505,49,-920,-1002,-1140,-1337,452,1926
1114,307,-196,-752,495,53,-921,-1002,-1138,-1333,459,1932
1112,303,-198,-749,495,50,-924,-1003,-1140,-1333,456,1928
1103,298,-194,-742,489,49,-925,-1002,-1142,-1331,452,1922
1103,306,-186,-746,485,57,-927,-1002,-1146,-1328,455,1926
1111,316,-184,-755,488,63,-929,-999,-1147,-1322,457,1929
1119,323,-185,-762,492,66,-932,-997,-1146,-1317,460,1931
1117,319,-187,-759,492,63,-932,-997,-1147,-1316,460,1928
1118,315,-192,-758,495,59,-934,-998,-1145,-1318,460,1925
1108,312,-185,-751,487,61,-936,-1001,-1141,-1322,459,1925
1097,304,-182,-742,480,58,-937,-1001,-1136,-1323,459,1926
1104,305,-188,-746,486,56,-932,-994,-1130,-1317,462,1930
1111,304,-196,-749,494,51,-929,-991,-1128,-1315,463,1931
1112,307,-194,-751,493,54,-927,-990,-1127,-1313,465,1932
1122,304,-207,-754,505,46,-930,-989,-1127,-1312,463,1930
1122,296,-215,-750,509,38,-930,-987,-1126,-1310,463,1929
1117,292,-214,-746,506,36,-931,-986,-1125,-1307,469,1936
1115,287,-217,-742,506,32,-933,-988,-1125,-1308,470,1938
1103,287,-205,-736,494,38,-932,-988,-1122,-1306,472,1941
1101,286,-204,-735,493,38,-933,-987,-1124,-1305,472,1943
1114,289,-214,-743,504,35,-932,-983,-1121,-1299,475,1947
1115,298,-206,-748,501,43,-934,-983,-1120,-1296,478,1949
1112,311,-190,-753,491,58,-939,-985,-1123,-1297,481,1953
1106,322,-173,-755,480,72,-946,-991,-1129,-1301,480,1952
1110,333,-166,-763,478,81,-953,-994,-1134,-1306,476,1949
1123,358,-154,-782,479,99,-956,-995,-1137,-1308,474,1949
1125,374,-140,-791,473,114,-963,-1002,-1144,-1314,471,1946
1128,378,-139,-794,474,117,-968,-1007,-1149,-1317,465,1941
1127,395,-121,-802,464,134,-977,-1015,-1155,-1320,466,1942
1122,408,-103,-806,453,150,-990,-1022,-1161,-1324,467,1942
1123,405,-107,-805,455,146,-1002,-1026,-1168,-1329,464,1944
1148,415,-122,-823,475,144,-1011,-1028,-1169,-1327,464,1942
1167,421,-135,-835,491,140,-1015,-1024,-1164,-1320,472,1948
1159,418,-130,-830,485,141,-1012,-1016,-1158,-1311,479,1959
1163,408,-144,-827,494,129,-1014,-1020,-1162,-1315,477,1960
1155,392,-152,-815,494,117,-1006,-1021,-1166,-1320,476,1960
1153,387,-155,-811,494,113,-997,-1019,-1166,-1323,478,1960
1148,375,-162,-803,495,104,-990,-1019,-1169,-1327,473,1956
1139,362,-166,-792,493,95,-985,-1017,-1167,-1329,464,1952
1148,365,-172,-798,500,94,-983,-1014,-1164,-1326,469,1958
1163,365,-187,-805,515,86,-979,-1012,-1164,-1327,470,1954
1146,359,-176,-794,501,89,-973,-1015,-1170,-1334,462,1940
1109,355,-143,-773,466,103,-971,-1019,-1174,-1337,461,1940
1100,355,-134,-769,457,108,-966,-1013,-1171,-1333,464,1952
1106,352,-143,-770,465,102,-959,-1008,-1169,-1333,471,1952
1127,348,-168,-779,488,87,-961,-1012,-1176,-1343,465,1942
1125,336,-178,-772,492,76,-958,-1012,-1180,-1348,456,1931
1093,330,-152,-753,463,86,-949,-1005,-1177,-1344,459,1934
1098,325,-162,-753,470,79,-957,-1010,-1183,-1348,446,1926
1110,323,-176,-758,483,71,-965,-1017,-1192,-1354,436,1918
1113,323,-179,-759,486,69,-958,-1007,-1186,-1348,447,1926
1105,326,-168,-757,477,76,-954,-1001,-1182,-1349,456,1932
1102,323,-168,-754,475,75,-957,-1004,-1186,-1360,454,1930
1122,334,-177,-769,490,76,-960,-1006,-1189,-1369,459,1936
1111,334,-166,-764,479,81,-952,-1001,-1186,-1371,466,1942
1092,322,-159,-748,466,79,-941,-992,-1181,-1371,459,1933
1081,315,-155,-739,458,77,-926,-980,-1174,-1371,452,1920
1070,308,-151,-730,451,76,-912,-974,-1170,-1375,442,1904
1060,311,-138,-727,439,84,-891,-965,-1159,-1371,440,1895
1043,320,-112,-723,418,101,-870,-946,-1136,-1353,449,1896
1063,319,-133,-732,438,90,-869,-931,-1112,-1333,450,1898
1102,347,-144,-766,463,99,-877,-908,-1068,-1286,466,1909
1138,400,-127,-810,473,134,-888,-862,-983,-1191,524,1958
1212,471,-130,-883,511,168,-921,-803,-876,-1068,616,2043
1300,536,-153,-959,567,189,-973,-761,-786,-959,703,2129
1395,573,-211,-1025,643,179,-1025,-716,-707,-870,759,2194
1446,563,-272,-1046,699,143,-1066,-701,-666,-822,784,2234
1378,565,-202,-1013,630,179,-1083,-787,-730,-868,776,2246
1287,558,-118,-964,543,218,-1067,-901,-874,-999,742,2230
1246,454,-181,-891,554,134,-1003,-938,-998,-1155,626,2121
1208,318,-279,-804,584,17,-926,-919,-1074,-1288,476,1977
1168,282,-275,-766,562,1,-887,-908,-1090,-1322,441,1938
1142,304,-227,-764,525,36,-884,-932,-1107,-1330,451,1942
1121,310,-200,-757,501,52,-909,-972,-1139,-1354,439,1930
1126,317,-198,-763,502,57,-940,-1001,-1163,-1373,429,1922
1136,324,-201,-771,509,59,-945,-1005,-1161,-1366,441,1926
1131,339,-181,-776,496,76,-939,-999,-1151,-1351,460,1932
1112,348,-153,-771,473,95,-935,-997,-1150,-1348,459,1926
1109,350,-148,-771,469,98,-937,-998,-1152,-1349,458,1926
1106,343,-152,-766,469,93,-936,-998,-1153,-1348,458,1924
1098,332,-155,-756,467,86,-936,-999,-1155,-1347,461,1928
1115,350,-154,-774,475,95,-939,-1000,-1155,-1345,467,1935
1115,352,-152,-775,474,97,-941,-1003,-1156,-1344,471,1940
1110,335,-164,-764,477,83,-938,-1000,-1153,-1340,473,1945
1119,332,-176,-767,488,75,-941,-999,-1152,-1338,471,1944
1115,342,-162,-770,479,87,-943,-1002,-1152,-1336,473,1948
1099,335,-153,-758,466,88,-941,-1004,-1151,-1331,478,1957
1101,333,-157,-758,469,85,-943,-1008,-1152,-1329,469,1951
1105,333,-161,-760,473,83,-944,-1011,-1153,-1327,462,1949
1106,327,-168,-758,477,77,-942,-1010,-1149,-1321,457,1949
1111,328,-172,-761,482,75,-945,-1012,-1149,-1320,452,1945
1115,327,-177,-762,486,72,-944,-1011,-1143,-1314,460,1952
1114,326,-177,-761,486,72,-945,-1013,-1140,-1310,470,1959
1106,325,-170,-757,478,75,-951,-1018,-1142,-1311,472,1960
1104,315,-178,-751,481,66,-951,-1019,-1142,-1313,458,1948
1115,329,-175,-763,485,74,-952,-1019,-1139,-1311,453,1944
1126,337,-178,-773,492,77,-956,-1022,-1137,-1312,450,1942
1126,320,-195,-764,501,60,-960,-1024,-1137,-1312,451,1942
1115,305,-199,-751,497,50,-957,-1019,-1132,-1309,458,1947
1115,306,-198,-752,497,51,-948,-1003,-1117,-1295,472,1960
1120,309,-200,-756,500,52,-940,-991,-1104,-1284,484,1972
1119,302,-206,-752,503,45,-936,-984,-1098,-1281,485,1972
1113,282,-220,-739,507,28,-932,-978,-1093,-1277,488,1975
1123,257,-255,-731,529,-2,-930,-973,-1088,-1275,490,1975
1139,234,-294,-728,557,-33,-931,-971,-1085,-1274,498,1981
1126,198,-317,-703,562,-62,-914,-952,-1066,-1257,518,1999
1125,174,-340,-691,573,-86,-899,-933,-1047,-1241,539,2018
1131,171,-349,-692,580,-92,-898,-931,-1045,-1239,542,2018
1126,162,-353,-685,580,-98,-901,-931,-1046,-1242,539,2014
1129,170,-348,-691,579,-92,-902,-928,-1041,-1241,542,2013
1135,199,-325,-708,570,-66,-901,-920,-1031,-1236,558,2025
1144,205,-328,-716,576,-64,-906,-918,-1028,-1243,553,2014
1143,206,-326,-716,575,-63,-913,-918,-1027,-1248,551,2012
1148,233,-304,-732,566,-38,-923,-919,-1021,-1241,563,2025
1171,257,-303,-755,577,-26,-931,-917,-1017,-1235,559,2016
1175,269,-295,-763,575,-16,-936,-914,-1014,-1229,559,2015
1162,282,-269,-763,556,4,-934,-905,-1005,-1220,569,2025
1160,290,-259,-766,550,13,-938,-901,-999,-1217,568,2022
1180,301,-268,-782,564,14,-953,-906,-1003,-1217,562,2015
1183,317,-255,-791,559,28,-959,-903,-1004,-1212,562,2016
1177,339,-227,-799,542,53,-964,-901,-1004,-1212,562,2016
1188,360,-217,-815,543,69,-975,-906,-1011,-1220,558,2011
1191,388,-192,-831,532,95,-985,-910,-1019,-1228,551,2005
1193,413,-169,-844,521,119,-993,-913,-1027,-1233,547,2004
1204,443,-150,-865,517,144,-1006,-921,-1042,-1243,534,1994
1224,470,-143,-888,524,161,-1016,-933,-1056,-1253,516,1981
1222,481,-130,-893,516,173,-1020,-940,-1067,-1258,510,1978
1205,472,-122,-880,504,172,-1019,-947,-1077,-1264,510,1980
1197,480,-106,-880,492,184,-1024,-964,-1099,-1282,506,1978
1213,500,-102,-898,498,196,-1032,-986,-1130,-1305,498,1972
1219,516,-92,-909,496,209,-1039,-1008,-1164,-1331,483,1960
1206,532,-63,-910,475,232,-1041,-1025,-1191,-1351,462,1946
1183,540,-32,-903,448,251,-1041,-1041,-1215,-1373,447,1936
1165,541,-13,-894,429,261,-1046,-1059,-1238,-1391,439,1930
1153,542,0,-889,417,268,-1047,-1073,-1262,-1408,424,1914
1160,553,4,-898,418,276,-1041,-1072,-1271,-1408,425,1916
1153,534,-8,-885,421,260,-1023,-1062,-1268,-1400,429,1920
1158,497,-50,-869,444,221,-1012,-1057,-1267,-1397,428,1923
1163,461,-91,-853,467,182,-999,-1049,-1263,-1391,432,1931
1141,432,-98,-828,460,164,-985,-1040,-1245,-1380,447,1945
1139,412,-116,-817,468,145,-982,-1039,-1221,-1377,457,1950
1148,406,-131,-818,480,135,-981,-1038,-1206,-1375,455,1946
1155,391,-153,-814,494,116,-982,-1039,-1195,-1374,450,1943
1152,380,-161,-807,497,107,-979,-1036,-1181,-1370,451,1942
1157,379,-167,-809,502,103,-973,-1028,-1163,-1360,455,1946
1144,363,-170,-795,497,94,-967,-1023,-1149,-1355,457,1948
1134,354,-169,-785,492,90,-963,-1022,-1140,-1354,460,1948
1127,345,-171,-777,489,84,-964,-1021,-1134,-1353,456,1941
1137,345,-181,-782,499,79,-967,-1024,-1135,-1354,448,1935
1151,348,-192,-791,512,75,-966,-1022,-1135,-1352,441,1928
1142,340,-191,-782,507,72,-961,-1017,-1133,-1348,440,1926
1133,349,-173,-782,493,85,-957,-1012,-1132,-1343,445,1926
1126,351,-164,-780,485,91,-958,-1016,-1139,-1347,438,1920
1142,356,-175,-790,499,88,-962,-1021,-1146,-1349,433,1917
1154,354,-189,-795,512,80,-965,-1024,-1149,-1348,441,1927
1144,354,-179,-790,502,85,-966,-1025,-1151,-1345,455,1940
1141,355,-175,-789,498,87,-968,-1024,-1152,-1342,466,1947
1144,360,-173,-793,499,91,-972,-1028,-1159,-1343,465,1943
1138,360,-167,-790,493,94,-971,-1029,-1167,-1344,460,1936
1144,371,-162,-799,493,102,-970,-1029,-1177,-1341,461,1937
1141,366,-164,-795,493,98,-971,-1030,-1189,-1344,455,1929
1141,365,-165,-794,493,97,-969,-1031,-1195,-1344,447,1923
1148,370,-167,-800,498,99,-968,-1032,-1201,-1344,444,1922
1141,366,-164,-795,493,98,-969,-1032,-1194,-1343,449,1926
1154,360,-183,-798,509,86,-972,-1031,-1184,-1343,446,1926
1142,350,-181,-787,502,82,-969,-1029,-1172,-1342,447,1928
1115,350,-154,-774,475,95,-965,-1026,-1165,-1339,454,1933
1125,357,-157,-782,481,97,-968,-1029,-1166,-1343,457,1936
1131,357,-163,-785,487,94,-969,-1035,-1172,-1353,447,1925
1139,359,-169,-790,494,92,-972,-1040,-1172,-1360,437,1917
1147,369,-167,-799,497,98,-970,-1038,-1167,-1360,435,1921
1131,370,-150,-792,481,107,-958,-1027,-1157,-1349,443,1931
1126,358,-157,-783,482,98,-958,-1027,-1161,-1348,444,1930
1148,352,-185,-791,507,81,-967,-1038,-1174,-1354,445,1928
1163,364,-188,-805,516,85,-970,-1041,-1180,-1357,444,1922
1127,360,-156,-785,482,99,-962,-1033,-1177,-1352,448,1930
1107,347,-149,-768,468,96,-957,-1030,-1176,-1350,442,1929
1122,345,-166,-775,484,87,-956,-1028,-1175,-1344,444,1932
1128,339,-178,-775,493,78,-956,-1029,-1178,-1338,451,1937
1110,326,-173,-759,482,74,-955,-1029,-1178,-1331,454,1939
1103,332,-160,-759,472,83,-953,-1026,-1175,-1322,458,1948
1106,340,-155,-764,471,90,-951,-1022,-1173,-1314,466,1956
1135,356,-168,-787,492,91,-955,-1022,-1173,-1310,471,1961
1147,368,-168,-799,498,97,-955,-1018,-1171,-1307,467,1959
1150,364,-175,-798,503,92,-961,-1020,-1179,-1314,456,1953
1159,365,-183,-803,511,88,-967,-1023,-1184,-1320,453,1950
1152,366,-175,-800,504,93,-969,-1025,-1185,-1328,453,1950
