Var1
-109
-123
-119
-128
-133
-134
-135
-130
-131
-118
-138
-111
-131
-139
-150
-131
-120
-123
-119
-114
-111
-119
-120
-99
-104
-105
-90
-84
-86
-86
-96
-81
-85
-83
-68
-80
-78
-75
-79
-91
-90
-114
-100
-100
-91
-83
-95
-101
-91
-93
-75
-74
-80
-64
-49
-50
-40
-9
38
125
235
391
541
708
845
940
913
800
600
391
215
55
-49
-79
-100
-115
-85
-105
-109
-123
-130
-139
-136
-133
-131
-144
-151
-156
-156
-168
-155
-169
-160
-165
-166
-175
-174
-173
-170
-175
-174
-169
-158
-176
-184
-176
-195
-170
-165
-155
-155
-181
-173
-179
-175
-166
-176
-145
-163
-155
-166
-169
-175
-170
-174
-148
-159
-155
-165
-165
-160
-159
-178
-153
-158
-148
-151
-168
-171
-159
-155
-150
-135
-139
-126
-131
-131
-125
-86
-99
-71
-60
-59
-55
-51
-64
-68
-49
-46
-41
-49
-53
-44
-66
-70
-69
-68
-54
-66
-78
-74
-88
-75
-81
-93
-79
-85
-83
-75
-74
-85
-85
-80
-78
-85
-80
-73
-100
-85
-95
-93
-83
-95
-88
-89
-86
-105
-114
-104
-100
-103
-103
-109
-110
-124
-116
-116
-115
-125
-119
-125
-116
-128
-136
-140
-138
-126
-125
-124
-115
-124
-125
-149
-135
-139
-136
-130
-133
-146
-139
-135
-154
-123
-150
-140
-141
-136
-146
-140
-153
-140
-140
-135
-145
-149
-141
-158
-153
-144
-151
-149
-141
-146
-153
-141
-139
-153
-151
-151
-138
-141
-145
-165
-156
-145
-149
-143
-140
-135
-146
-131
-158
-156
-145
-149
-143
-138
-145
-155
-153
-151
-151
-138
-140
-119
-125
-144
-144
-145
-141
-134
-120
-105
-103
-100
-115
-108
-106
-114
-111
-106
-89
-99
-109
-101
-115
-118
-115
-119
-125
-116
-130
-125
-128
-136
-138
-125
-106
-100
-105
-106
-105
-114
-94
-89
-70
-48
30
121
263
430
618
750
805
709
526
298
81
-76
-139
-178
-173
-140
-136
-145
-146
-159
-171
-175
-173
-199
-171
-180
-204
-203
-195
-203
-209
-201
-209
-190
-210
-213
-233
-221
-220
-218
-220
-225
-221
-235
-233
-231
-225
-213
-226
-214
-220
-230
-236
-229
-234
-229
-231
-223
-224
-238
-231
-233
-240
-240
-243
-233
-243
-256
-264
-259
-276
-266
-266
-251
-251
-253
-255
-263
-269
-271
-259
-258
-254
-243
-261
-260
-268
-250
-249
-250
-223
-218
-213
-196
-200
-205
-188
-178
-165
-165
-163
-171
-179
-189
-181
-193
-171
-171
-200
-195
-209
-228
-220
-228
-231
-213
-219
-220
-226
-240
-238
-240
-243
-228
-226
-233
-238
-241
-243
-241
-243
-239
-240
-233
-241
-246
-264
-258
-264
-243
-246
-260
-261
-256
-265
-263
-263
-264
-266
-273
-270
-295
-289
-288
-281
-300
-293
-285
-278
-295
-296
-311
-319
-309
-306
-305
-301
-313
-310
-310
-335
-326
-324
-325
-333
-329
-334
-351
-353
-353
-351
-346
-334
-343
-344
-358
-353
-356
-350
-345
-343
-341
-360
-351
-358
-353
-353
-346
-348
-360
-340
-351
-353
-364
-368
-363
-346
-351
-350
-356
-363
-363
-366
-359
-365
-358
-361
-370
-364
-370
-374
-374
-364
-371
-370
-374
-379
-389
-395
-381
-393
-386
-390
-370
-395
-403
-400
-396
-388
-399
-394
-395
-400
-401
-400
-393
-405
-388
-381
-376
-394
-406
-408
-419
-411
-420
-404
-415
-431
-441
-451
-456
-470
-468
-458
-456
-460
-458
-466
-469
-470
-453
-455
-431
-405
-339
-255
-100
80
280
460
568
566
449
251
31
-175
-331
-448
-496
-516
-523
-520
-528
-546
-553
-554
-564
-576
-569
-581
-580
-583
-605
-595
-591
-589
-589
-584
-609
-603
-605
-594
-591
-593
-589
-576
-576
-590
-594
-604
-599
-590
-585
-580
-586
-585
-571
-575
-575
-573
-575
-558
-561
-563
-559
-565
-559
-560
-545
-536
-525
-534
-551
-531
-540
-526
-531
-514
-498
-513
-520
-514
-518
-515
-496
-503
-483
-483
-490
-494
-485
-480
-478
-446
-440
-421
-413
-410
-390
-384
-360
-360
-349
-345
-330
-349
-351
-343
-355
-344
-348
-343
-330
-353
-345
-348
-329
-331
-351
-344
-335
-330
-330
-339
-341
-330
-331
-316
-326
-316
-323
-330
-329
-319
-314
-310
-301
-310
-305
-300
-319
-326
-313
-316
-301
-303
-296
-305
-319
-310
-303
-305
-303
-288
-301
-299
-310
-309
-314
-294
-296
-285
-290
-298
-310
-305
-305
-304
-295
-295
-288
-305
-291
-303
-304
-298
-295
-293
-293
-276
-284
-286
-289
-275
-294
-288
-283
-280
-279
-286
-288
-285
-293
-285
-276
-279
-283
-276
-290
-281
-289
-286
-271
-275
-283
-281
-268
-289
-275
-284
-273
-254
-263
-273
-265
-278
-275
-264
-251
-249
-264
-253
-261
-250
-250
-268
-253
-255
-253
-250
-244
-249
-266
-254
-241
-235
-231
-223
-244
-231
-238
-224
-211
-200
-200
-205
-189
-195
-200
-186
-178
-180
-166
-169
-168
-164
-170
-169
-168
-181
-171
-164
-170
-186
-174
-166
-166
-156
-148
-135
-136
-131
-129
-135
-124
-113
-95
-49
15
111
245
418
588
789
915
958
858
664
426
190
-3
-100
-139
-151
-145
-131
-118
-133
-138
-155
-165
-164
-173
-171
-173
-174
-178
-174
-160
-183
-173
-161
-150
-176
-176
-179
-180
-178
-184
-181
-181
-178
-179
-183
-184
-186
-161
-170
-156
-160
-155
-170
-185
-180
-171
-169
-150
-156
-155
-164
-163
-174
-158
-155
-149
-145
-143
-154
-154
-161
-150
-148
-141
-145
-139
-144
-134
-156
-128
-130
-114
-105
-101
-90
-80
-71
-65
-50
-40
-34
-25
-24
-25
-38
-33
-30
-34
-36
-25
-31
-40
-35
-50
-43
-45
-28
-38
-41
-40
-45
-38
-49
-36
-31
-31
-35
-40
-39
-40
-50
-30
-30
-33
-29
-39
-36
-55
-56
-40
-46
-45
-44
-44
-50
-59
-59
-74
-65
-58
-45
-56
-56
-54
-73
-63
-66
-74
-60
-60
-63
-69
-75
-76
-73
-70
-74
-69
-53
-70
-64
-81
-74
-75
-58
-71
-56
-64
-73
-83
-69
-84
-85
-71
-63
-63
-84
-85
-85
-70
-73
-68
-55
-60
-71
-69
-66
-74
-74
-59
-56
-58
-49
-63
-75
-60
-65
-56
-54
-56
-56
-65
-70
-65
-65
-64
-55
-48
-38
-45
-50
-49
-41
-51
-44
-34
-35
-46
-50
-53
-33
-40
-31
-34
-14
-6
-11
-23
3
-11
3
5
11
6
6
11
0
9
6
14
5
-13
9
-19
-13
-23
-11
-9
8
3
6
10
14
9
13
25
41
38
59
53
104
154
250
393
593
788
964
1026
999
828
609
359
183
56
-9
0
-14
-4
0
4
-6
1
-20
-20
-31
-44
-39
-40
-49
-46
-24
-45
-38
-44
-59
-51
-45
-46
-40
-41
-50
-56
-45
-60
-53
-43
-59
-39
-45
-48
-59
-60
-46
-59
-55
-45
-25
-38
-48
-54
-44
-46
-49
-46
-40
-45
-33
-48
-59
-48
-53
-50
-45
-49
-43
-60
-53
-59
-48
-51
-34
-33
-29
-34
-33
-48
-26
-8
0
21
44
31
38
19
31
45
61
60
68
70
55
54
43
56
45
56
49
53
41
26
21
29
36
39
40
34
28
38
19
18
36
23
31
39
21
24
20
11
16
16
20
31
24
20
-4
5
8
10
14
25
-6
-4
1
-16
-6
-13
3
-13
0
-24
-6
-9
-14
-19
-11
-6
-6
-9
-19
-25
-33
-28
-23
-18
-15
-18
-26
-31
-30
-33
-38
-20
-21
-16
-18
-25
-35
-25
-26
-15
-13
-11
-19
-35
-35
-30
-26
-46
-28
-16
-30
-35
-38
-50
-30
-45
-29
-24
-25
-24
-28
-48
-30
-41
-25
-30
-31
-38
-44
-30
-45
-39
-29
-24
-25
-20
-30
-20
-38
-33
-18
-13
-19
-25
-10
-18
-21
-10
-18
-3
9
6
9
9
6
4
14
10
14
25
36
9
18
-8
8
11
-6
3
0
0
-25
-6
-10
-6
9
15
16
21
28
23
38
48
95
178
301
480
655
868
960
928
771
540
306
129
-9
-44
-53
-33
-30
-9
-16
-20
-50
-45
-74
-61
-70
-63
-58
-63
-48
-75
-61
-75
-69
-88
-79
-71
-85
-84
-83
-91
-85
-84
-88
-81
-83
-81
-94
-86
-100
-85
-90
-78
-78
-80
-85
-83
-80
-98
-78
-88
-73
-76
-86
-91
-96
-81
-89
-73
-65
-80
-76
-95
-111
-98
-95
-86
-88
-84
-85
-95
-86
-96
-78
-69
-70
-50
-46
-51
-51
-34
-31
-8
4
11
21
11
3
9
5
10
4
0
1
-5
-4
-13
-20
-19
-23
-20
-29
-24
-13
-16
-33
-29
-33
-10
-13
-14
-14
-28
-25
-28
-25
-16
-25
-6
-5
-20
-19
-30
-31
-18
-20
-18
-29
-25
-43
-44
-45
-35
-49
-44
-36
-40
-49
-50
-49
-48
-60
-53
-36
-40
-56
-65
-55
-61
-63
-53
-33
-45
-56
-53
-66
-75
-60
-50
-49
-46
-54
-50
-70
-71
-55
-55
-50
-64
-61
-53
-60
-68
-63
-48
-54
-58
-40
-51
-56
-66
-59
-63
-64
-60
-44
-50
-58
-56
-64
-60
-60
-50
-55
-59
-61
-56
-66
-56
-51
-49
-46
-56
-49
-50
-56
-61
-64
-43
-40
-45
-45
-55
-50
-58
-35
-45
-33
-25
-24
-26
-21
-29
-24
-6
-5
-4
-3
-6
-13
-23
-5
-15
5
10
-5
6
-15
-16
-19
-18
-19
-11
-6
-5
-11
-8
3
3
0
10
13
30
23
46
120
220
363
544
749
910
985
949
811
590
388
189
70
18
-4
-11
-23
-9
-5
-19
-15
-24
-34
-41
-50
-50
-61
-60
-39
-51
-66
-61
-66
-80
-79
-80
-65
-71
-75
-84
-73
-85
-84
-88
-70
-78
-70
-68
-76
-76
-81
-73
-73
-73
-56
-65
-63
-76
-86
-73
-73
-74
-70
-59
-60
-60
-68
-65
-65
-68
-63
-54
-70
-79
-75
-73
-81
-81
-63
-64
-79
-65
-80
-73
-80
-71
-54
-50
-36
-45
-30
-36
-20
-8
4
13
31
35
44
38
29
43
54
48
56
49
45
25
14
23
21
25
28
25
28
13
10
8
16
9
23
30
24
6
10
4
6
20
11
9
9
23
9
13
-11
10
0
13
-4
8
-4
-8
-6
5
-4
0
0
-15
-8
-15
-20
-25
-29
-25
-8
-13
-28
-30
-26
-31
-26
-45
-28
-20
-25
-29
-35
-20
-35
-38
-46
-33
-29
-34
-43
-43
-46
-40
-39
-45
-36
-43
-43
-39
-50
-41
-44
-44
-39
-35
-60
-40
-49
-46
-33
-36
-39
-40
-43
-48
-51
-44
-55
-54
-40
-39
-35
-35
-54
-34
-58
-40
-41
-29
-50
-44
-46
-45
-55
-33
-43
-33
-36
-38
-45
-45
-33
-23
-24
-11
1
-5
-4
-8
-11
-13
-10
9
3
11
-19
11
-8
9
0
-8
19
0
-11
-20
-33
-15
-21
-5
9
4
15
5
21
26
24
59
76
131
230
365
528
705
879
994
1000
904
724
523
339
191
90
35
19
14
18
9
-18
-23
-25
-39
-33
-40
-51
-48
-58
-58
-68
-54
-59
-64
-70
-69
-79
-76
-79
-80
-78
-73
-71
-70
-93
-79
-89
-81
-94
-85
-70
-61
-74
-84
-76
-81
-84
-71
-69
-76
-74
-79
-80
-80
-83
-83
-73
-55
-69
-66
-70
-84
-81
-86
-81
-78
-73
-83
-75
-69
-79
-81
-73
-61
-73
-55
-65
-69
-60
-56
-39
-30
-4
-4
16
9
21
15
23
30
45
29
25
36
11
14
20
11
14
15
16
-8
-6
1
3
-11
10
8
3
4
0
-8
-3
4
-5
5
6
-5
9
-8
-16
-19
1
-10
-3
-18
-19
-29
-46
-30
-25
-24
-18
-14
-31
-29
-46
-30
-34
-38
-28
-29
-40
-38
-46
-49
-41
-34
-31
-39
-36
-50
-49
-60
-53
-48
-41
-28
-45
-50
-60
-59
-55
-51
-45
-31
-45
-45
-56
-53
-51
-54
-59
-55
-58
-43
-56
-49
-51
-44
-48
-45
-56
-61
-56
-61
-63
-65
-64
-56
-55
-49
-53
-46
-65
-65
-59
-69
-68
-53
-50
-66
-68
-76
-59
-66
-65
-45
-59
-51
-65
-63
-66
-55
-40
-26
-36
-33
-46
-38
-21
-25
-25
-21
-23
-15
-20
-24
-30
-23
-24
-20
-9
-14
-28
-16
-35
-43
-31
-31
-28
-30
-20
-31
-23
-25
-10
-13
-5
1
10
19
30
90
155
266
425
590
770
900
956
924
798
609
445
279
154
55
-13
-25
-38
-43
-50
-44
-59
-64
-79
-100
-90
-85
-83
-93
-88
-100
-99
-95
-115
-109
-118
-109
-111
-109
-108
-114
-119
-120
-120
-129
-115
-119
-115
-123
-126
-136
-118
-114
-123
-109
-128
-121
-130
-126
-124
-121
-129
-113
-108
-106
-121
-119
-118
-116
-123
-105
-99
-93
-116
-125
-125
-121
-116
-126
-100
-123
-124
-121
-136
-129
-118
-111
-99
-103
-96
-95
-86
-83
-66
-49
-33
-38
-20
-21
-8
-24
-20
-26
-11
-4
-3
-6
-23
-26
-23
-34
-30
-31
-28
-38
-43
-39
-35
-50
-41
-33
-34
-40
-53
-38
-59
-54
-55
-48
-33
-53
-50
-50
-51
-45
-55
-48
-54
-40
-51
-50
-73
-66
-60
-69
-69
-61
-66
-80
-81
-93
-85
-83
-83
-86
-89
-79
-90
-99
-96
-98
-85
-80
-81
-90
-83
-96
-95
-94
-99
-104
-94
-94
-91
-89
-108
-110
-94
-90
-90
-105
-95
-119
-110
-108
-103
-119
-110
-115
-105
-118
-123
-124
-125
-110
-105
-101
-114
-109
-106
-111
-119
-106
-116
-109
-108
-125
-113
-133
-129
-134
-115
-99
-121
-126
-123
-123
-125
-126
-121
-125
-110
-119
-113
-125
-126
-106
-128
-108
-96
-101
-114
-116
-120
-119
-125
-109
-95
-91
-90
-83
-91
-91
-86
-91
-84
-73
-85
-74
-73
-81
-94
-69
-79
-58
-83
-84
-81
-94
-104
-91
-101
-68
-80
-76
-74
-83
-83
-73
-71
-55
-49
-54
-54
-53
-21
23
111
235
429
634
819
929
888
731
494
279
78
-45
-103
-121
-115
-101
-89
-94
-99
-98
-95
-113
-128
-129
-120
-128
-139
-151
-143
-155
-141
-144
-145
-150
-150
-140
-156
-141
-149
-153
-150
-133
-146
-146
-135
-148
-133
-145
-151
-156
-150
-145
-129
-136
-136
-130
-139
-129
-140
-125
-119
-125
-119
-141
-138
-134
-134
-136
-115
-121
-121
-131
-133
-141
-141
-136
-141
-141
-138
-143
-139
-136
-136
-136
-128
-105
-113
-104
-98
-109
-79
-60
-70
-29
-19
-28
-34
-20
-24
-16
-13
5
-8
-5
-15
-30
-43
-43
-31
-40
-33
-41
-35
-45
-53
-43
-45
-18
-39
-35
-19
-44
-41
-56
-29
-31
-45
-34
-35
-34
-50
-55
-51
-41
-50
-40
-40
-48
-58
-71
-59
-66
-44
-40
-53
-51
-65
-68
-74
-73
-64
-49
-60
-73
-73
-71
-73
-93
-73
-65
-78
-76
-70
-95
-88
-90
-89
-79
-65
-75
-71
-75
-88
-93
-80
-90
-75
-76
-71
-76
-81
-86
-88
-95
-91
-78
-73
-90
-91
-98
-78
-90
-80
-68
-64
-75
-70
-80
-83
-69
-78
-100
-65
-83
-89
-90
-90
-95
-94
-84
-80
-85
-85
-86
-73
-93
-90
-84
-78
-80
-93
-84
-80
-96
-75
-75
-64
-59
-58
-71
-56
-65
-56
-54
-53
-38
-50
-38
-48
-50
-44
-44
-44
-38
-26
-40
-40
-53
-59
-50
-45
-54
-40
-38
-51
-65
-51
-50
-43
-40
-24
-26
-25
-6
5
55
134
279
458
676
865
983
983
843
640
404
229
65
-30
-56
-44
-43
-48
-53
-44
-54
-73
-75
-83
-91
-98
-98
-90
-79
-85
-94
-100
-105
-111
-120
-103
-80
-91
-118
-111
-110
-126
-128
-115
-109
-109
-98
-104
-116
-109
-111
-111
-114
-101
-106
-113
-110
-116
-128
-110
-108
-101
-103
-105
-106
-120
-108
-116
-89
-111
-101
-105
-100
-108
-110
-133
-123
-100
-111
-110
-123
-109
-119
-125
-119
-95
-85
-85
-83
-56
-50
-51
-63
-31
-38
-8
0
-10
4
-11
-6
-16
-14
-19
-16
-14
-21
-30
-29
-31
-23
-33
-16
-21
-40
-25
-29
-31
-24
-25
-18
-25
-26
-24
-40
-38
-33
-39
-23
-26
-34
-34
-40
-44
-39
-31
-35
-28
-25
-33
-49
-46
-49
-40
-50
-45
-43
-43
-50
-65
-59
-66
-53
-59
-43
-56
-70
-71
-69
-71
-65
-61
-61
-69
-63
-76
-89
-71
-76
-69
-63
-58
-75
-64
-73
-74
-79
-71
-66
-55
-70
-75
-75
-78
-80
-71
-66
-73
-66
-71
-80
-79
-76
-90
-75
-79
-65
-83
-70
-86
-89
-79
-74
-66
-69
-69
-70
-78
-69
-70
-76
-73
-58
-50
-71
-61
-74
-75
-65
-66
-65
-50
-45
-58
-55
-59
-56
-43
-38
-31
-36
-33
-40
-33
-45
-35
-20
-13
-8
-19
-13
-31
-28
-26
-34
-19
-30
-35
-53
-56
-55
-56
-39
-36
-40
-38
-35
-23
-21
-16
-15
6
43
110
210
345
505
676
831
900
870
726
550
321
150
61
-20
-28
-28
-40
-33
-30
-51
-63
-65
-73
-69
-83
-75
-96
-94
-109
-113
-100
-96
-109
-90
-109
-113
-125
-120
-114
-116
-104
-101
-116
-113
-100
-113
-111
-125
-103
-106
-109
-111
-109
-131
-121
-100
-110
-114
-99
-99
-120
-119
-111
-120
-110
-115
-100
-99
-106
-126
-123
-118
-120
-115
-99
-106
-113
-109
-116
-115
-124
-95
-106
-99
-90
-101
-99
-100
-76
-68
-50
-31
-19
-21
-23
-16
-13
-16
-6
-10
-16
-19
-19
-40
-33
-31
-28
-36
-29
-40
-45
-49
-55
-50
-53
-36
-39
-43
-48
-56
-46
-50
-43
-44
-43
-55
-49
-50
-64
-65
-53
-61
-50
-41
-64
-70
-65
-84
-59
-76
-65
-53
-76
-59
-69
-76
-99
-88
-78
-78
-76
-99
-80
-88
-106
-101
-99
-89
-88
-103
-105
-108
-95
-105
-89
-98
-96
-98
-101
-106
-110
-103
-104
-115
-111
-105
-115
-113
-115
-110
-105
-109
-115
-96
-103
-114
-134
-120
-116
-110
-100
-105
-109
-100
-118
-119
-104
-103
-111
-106
-104
-111
-106
-116
-119
-114
-108
-110
-104
-113
-106
-116
-109
-119
-110
-93
-108
-114
-106
-103
-121
-116
-105
-106
-99
-104
-99
-103
-95
-96
-89
-74
-78
-65
-83
-78
-76
-69
-75
-74
-60
-60
-55
-69
-76
-89
-78
-94
-84
-78
-94
-85
-94
-91
-94
-75
-83
-53
-55
-65
-55
-50
-14
-5
56
154
283
416
595
759
876
939
909
783
629
433
254
104
5
-53
-79
-84
-91
-85
-106
-113
-138
-144
-141
-138
-133
-146
-150
-160
-160
-165
-158
-156
-163
-160
-146
-164
-168
-179
-176
-164
-171
-160
-160
-165
-175
-178
-169
-178
-166
-160
-164
-179
-155
-156
-168
-153
-173
-143
-148
-164
-170
-165
-158
-160
-160
-155
-163
-149
-150
-146
-158
-170
-160
-158
-156
-151
-160
-168
-170
-163
-150
-154
-154
-146
-126
-131
-113
-111
-93
-90
-70
-60
-53
-51
-54
-54
-66
-56
-55
-38
-59
-48
-56
-71
-69
-68
-71
-66
-53
-66
-81
-66
-66
-76
-63
-71
-59
-71
-63
-70
-61
-70
-70
-60
-53
-56
-58
-65
-75
-65
-66
-58
-56
-60
-55
-65
-75
-80
-83
-83
-70
-71
-76
-75
-85
-89
-96
-90
-84
-78
-79
-88
-94
-100
-98
-100
-96
-105
-81
-95
-96
-108
-111
-109
-90
-95
-89
-100
-95
-98
-104
-110
-103
-100
-100
-101
-103
-105
-111
-111
-104
-93
-108
-104
-91
-88
-98
-116
-111
-118
-101
-98
-94
-103
-105
-119
-110
-96
-113
-101
-109
-98
-104
-121
-115
-106
-105
-104
-93
-99
-93
-96
-115
-114
-109
-100
-109
-104
-113
-106
-114
-100
-105
-99
-99
-100
-95
-110
-105
-116
-106
-94
-93
-80
-79
-75
-70
-79
-70
-66
-71
-56
-55
-58
-60
-63
-56
-55
-55
-56
-48
-51
-61
-66
-73
-66
-70
-75
-58
-64
-71
-75
-83
-68
-68
-61
-55
-41
-60
-45
-43
-48
-36
0
43
141
245
414
613
775
870
838
711
465
251
55
-61
-113
-114
-99
-68
-59
-74
-84
-95
-111
-126
-119
-124
-111
-106
-134
-121
-138
-136
-139
-135
-125
-125
-130
-135
-146
-135
-141
-140
-144
-131
-139
-136
-146
-145
-139
-148
-139
-136
-124
-113
-123
-133
-145
-124
-136
-126
-123
-123
-134
-144
-128
-135
-129
-128
-129
-125
-124
-134
-148
-139
-149
-136
-133
-133
-130
-133
-151
-143
-136
-138
-131
-123
-115
-129
-126
-108
-101
-99
-94
-61
-60
-51
-56
-31
-35
-30
-21
-11
-16
-15
-21
-19
-29
-31
-31
-20
-26
-30
-44
-29
-48
-39
-35
-38
-41
-31
-46
-48
-40
-48
-46
-28
-40
-43
-40
-50
-46
-56
-43
-61
-43
-45
-53
-49
-58
-56
-63
-51
-50
-61
-49
-60
-70
-71
-60
-63
-53
-59
-59
-74
-74
-85
-85
-76
-76
-68
-84
-80
-79
-89
-91
-85
-91
-81
-81
-80
-89
-90
-99
-91
-94
-79
-73
-95
-90
-93
-95
-108
-101
-100
-78
-90
-80
-91
-93
-113
-98
-94
-104
-90
-91
-94
-98
-105
-115
-95
-83
-85
-90
-95
-93
-98
-88
-99
-100
-85
-98
-96
-105
-96
-103
-95
-98
-98
-88
-74
-98
-98
-98
-91
-85
-74
-71
-80
-65
-55
-61
-68
-70
-68
-64
-51
-48
-60
-58
-59
-55
-65
-49
-29
-39
-46
-45
-70
-73
-74
-70
-69
-74
-69
-66
-74
-71
-75
-65
-48
-35
-46
-39
-34
-13
66
170
343
529
719
820
785
633
420
208
45
-55
-78
-96
-84
-79
-80
-66
-90
-91
-95
-111
-123
-114
-124
-123
-125
-134
-130
-111
-126
-144
-131
-151
-134
-146
-140
-144
-138
-136
-149
-153
-150
-148
-124
-151
-139
-146
-151
-145
-134
-138
-140
-131
-128
-145
-133
-151
-139
-131
-139
-124
-131
-140
-145
-141
-149
-145
-133
-133
-143
-139
-140
-148
-168
-151
-146
-134
-128
-133
-136
-140
-145
-143
-135
-121
-103
-103
-96
-80
-80
-74
-58
-43
-21
-33
-35
-36
-45
-50
-25
-43
-44
-31
-51
-54
-58
-69
-70
-75
-65
-73
-61
-51
-65
-70
-76
-73
-71
-60
-65
-64
-78
-71
-85
-85
-81
-69
-86
-65
-89
-76
-85
-90
-90
-95
-93
-76
-90
-101
-111
-103
-104
-101
-91
-90
-104
-106
-113
-116
-114
-110
-116
-103
-110
-125
-116
-126
-134
-121
-116
-126
-104
-104
-129
-128
-130
-140
-138
-136
-124
-130
-133
-138
-145
-139
-141
-141
-125
-134
-113
-138
-139
-136
-138
-139
-123
-139
-125
-130
-138
-145
-138
-129
-124
-131
-120
-138
-131
-149
-135
-131
-139
-128
-124
-139
-138
-145
-146
-140
-140
-131
-129
-136
-140
-138
-134
-129
-134
-125
-118
-113
-110
-116
-129
-111
-109
-90
-95
-99
-103
-105
-109
-89
-76
-96
-85
-80
-89
-91
-106
-110
-110
-109
-103
-100
-111
-109
-125
-110
-111
-96
-83
-79
-81
-93
-91
-80
-74
-18
51
183
338
534
693
814
805
705
510
324
148
4
-76
-105
-123
-123
-118
-110
-123
-126
-153
-155
-179
-165
-164
-158
-174
-158
-174
-168
-184
-184
-185
-188
-180
-183
-175
-189
-190
-218
-189
-191
-188
-180
-183
-193
-189
-205
-199
-191
-191
-191
-193
-184
-208
-194
-199
-188
-198
-183
-183
-184
-199
-196
-193
-198
-190
-183
-171
-181
-179
-193
-196
-184
-186
-191
-188
-181
-195
-196
-205
-206
-190
-204
-180
-188
-179
-193
-191
-189
-185
-164
-143
-138
-130
-119
-105
-116
-100
-96
-91
-80
-78
-89
-80
-90
-106
-95
-98
-96
-89
-94
-89
-109
-120
-100
-115
-98
-100
-106
-96
-100
-104
-119
-95
-103
-86
-90
-99
-100
-99
-104
-116
-108
-100
-85
-94
-100
-111
-108
-99
-106
-110
-96
-105
-125
-116
-123
-126
-116
-134
-119
-130
-123
-125
-135
-140
-138
-121
-126
-126
-140
-145
-136
-151
-139
-138
-133
-144
-131
-131
-138
-161
-151
-145
-139
-146
-136
-151
-141
-165
-166
-164
-140
-146
-144
-136
-145
-156
-149
-140
-155
-145
-131
-138
-135
-154
-165
-164
-146
-145
-140
-129
-140
-145
-151
-150
-150
-139
-145
-145
-140
-139
-151
-155
-145
-148
-134
-118
-128
-130
-143
-149
-154
-140
-146
-136
-128
-136
-143
-148
-144
-119
-150
-118
-126
-108
-111
-124
-133
-126
-121
-106
-98
-91
-94
-103
-95
-94
-93
-81
-75
-75
-69
-71
-76
-71
-71
-83
-83
-80
-91
-80
-103
-105
-95
-95
-88
-73
-91
-80
-88
-81
-75
-68
-48
-53
-59
-40
-29
4
53
150
298
473
640
825
920
913
813
619
390
184
33
-70
-109
-110
-115
-103
-96
-109
-111
-126
-134
-135
-155
-160
-143
-155
-150
-160
-151
-145
-156
-165
-173
-158
-161
-170
-149
-155
-156
-159
-153
-166
-169
-154
-145
-163
-165
-179
-168
-165
-160
-166
-151
-149
-166
-169
-164
-153
-160
-150
-146
-155
-148
-165
-160
-160
-166
-161
-144
-145
-146
-161
-168
-165
-153
-155
-158
-145
-155
-153
-164
-164
-140
-135
-124
-116
-106
-79
-84
-88
-70
-70
-65
-31
-31
-40
-51
-55
-65
-49
-49
-45
-50
-55
-46
-63
-60
-60
-58
-64
-65
-56
-64
-60
-71
-68
-71
-53
-50
-51
-55
-55
-58
-70
-76
-71
-59
-55
-64
-74
-89
-85
-78
-76
-75
-73
-88
-78
-93
-99
-101
-91
-84
-98
-90
-96
-90
-99
-99
-108
-101
-96
-103
-99
-101
-100
-106
-93
-104
-108
-85
-110
-101
-103
-113
-126
-100
-115
-103
-105
-96
-110
-106
-111
-114
-108
-101
-119
-109
-103
-119
-120
-120
-115
-118
-114
-110
-113
-119
-113
-120
-99
-113
-109
-108
-120
-111
-110
-121
-111
-116
-118
-106
-105
-106
-116
-118
-113
-106
-109
-111
-116
-128
-116
-111
-118
-115
-128
-90
-93
-120
-100
-120
-104
-111
-119
-95
-88
-85
-75
-91
-85
-99
-81
-78
-63
-68
-71
-66
-69
-61
-56
-59
-63
-50
-64
-79
-83
-80
-89
-84
-84
-75
-71
-86
-91
-83
-86
-78
-64
-69
-63
-54
-55
-70
-40
-13
58
166
321
519
706
833
820
695
504
283
91
-34
-89
-110
-106
-103
-88
-88
-84
-99
-105
-115
-115
-140
-133
-145
-136
-135
-129
-140
-139
-149
-159
-141
-150
-143
-150
-155
-159
-146
-151
-161
-141
-143
-151
-145
-144
-159
-153
-154
-148
-144
-145
-120
-138
-136
-156
-150
-140
-131
-140
-128
-131
-143
-155
-140
-140
-134
-146
-138
-145
-145
-150
-141
-144
-141
-129
-145
-144
-134
-134
-135
-119
-113
-95
-86
-85
-75
-71
-69
-56
-50
-51
-33
-25
-30
-35
-43
-30
-44
-43
-36
-59
-49
-53
-73
-59
-66
-65
-65
-59
-61
-65
-65
-66
-56
-70
-60
-70
-60
-79
-54
-65
-74
-80
-79
-60
-75
-66
-78
-86
-90
-93
-79
-76
-85
-76
-78
-100
-96
-96
-90
-85
-76
-93
-93
-101
-103
-108
-104
-115
-103
-93
-94
-108
-108
-115
-120
-119
-105
-111
-105
-126
-125
-128
-116
-111
-111
-118
-103
-121
-125
-141
-131
-133
-123
-124
-118
-116
-120
-121
-135
-123
-126
-111
-108
-109
-133
-119
-129
-136
-139
-121
-116
-106
-133
-116
-130
-119
-130
-120
-120
-111
-104
-116
-125
-115
-139
-135
-118
-101
-131
-123
-121
-133
-138
-136
-141
-126
-110
-126
-126
-120
-125
-131
-110
-98
-111
-109
-105
-111
-93
-98
-90
-81
-80
-84
-96
-90
-88
-93
-84
-75
-79
-78
-80
-91
-95
-99
-111
-91
-94
-111
-111
-105
-104
-100
-85
-90
-71
-74
-63
-69
-45
-29
34
154
295
491
703
835
870
816
641
435
236
79
-21
-96
-124
-113
-99
-103
-120
-110
-116
-140
-153
-143
-171
-151
-156
-153
-151
-155
-160
-160
-183
-166
-173
-166
-156
-168
-173
-175
-185
-184
-165
-164
-161
-169
-171
-176
-179
-193
-171
-165
-173
-176
-176
-171
-191
-183
-179
-163
-178
-158
-156
-148
-168
-179
-174
-160
-165
-151
-155
-170
-166
-175
-180
-183
-179
-173
-176
-174
-175
-174
-175
-186
-165
-160
-150
-143
-125
-121
-125
-109
-88
-76
-75
-75
-78
-71
-63
-88
-84
-78
-88
-95
-63
-85
-91
-100
-101
-89
-94
-104
-98
-90
-100
-109
-94
-96
-93
-109
-88
-98
-93
-94
-113
-98
-105
-90
-100
-90
-91
-109
-118
-115
-109
-95
-110
-100
-120
-125
-123
-129
-124
-124
-129
-130
-138
-129
-146
-144
-151
-139
-149
-143
-146
-146
-143
-159
-149
-154
-154
-149
-155
-151
-163
-160
-153
-158
-143
-143
-150
-155
-159
-166
-169
-170
-160
-155
-151
-155
-158
-159
-163
-169
-163
-150
-145
-155
-155
-153
-168
-159
-153
-156
-141
-135
-149
-160
-145
-145
-153
-151
-138
-129
-151
-140
-150
-154
-151
-156
-134
-140
-145
-145
-131
-151
-151
-151
-140
-138
-146
-140
-140
-139
-138
-138
-138
-135
-134
-129
-136
-134
-126
-135
-119
-121
-121
-95
-105
-119
-100
-115
-104
-98
-76
-78
-69
-79
-80
-85
-90
-83
-90
-79
-99
-89
-119
-110
-113
-109
-83
-78
-80
-91
-89
-90
-85
-76
-74
-45
-18
23
86
174
319
488
676
814
874
854
718
528
329
165
43
-45
-70
-83
-89
-101
-104
-109
-121
-125
-128
-131
-119
-140
-158
-163
-138
-159
-151
-150
-158
-160
-173
-179
-171
-183
-170
-154
-163
-170
-156
-166
-161
-165
-176
-159
-161
-153
-169
-165
-174
-160
-170
-149
-159
-151
-160
-165
-166
-160
-154
-164
-143
-145
-149
-160
-155
-158
-163
-148
-156
-144
-141
-151
-163
-169
-161
-166
-156
-151
-146
-155
-148
-146
-118
-130
-115
-99
-90
-88
-69
-73
-61
-59
-40
-43
-45
-31
-48
-36
-54
-29
-45
-35
-29
-39
-51
-40
-54
-66
-49
-53
-50
-40
-46
-60
-66
-64
-59
-56
-55
-39
-46
-49
-60
-68
-66
-60
-43
-54
-51
-58
-69
-79
-64
-59
-68
-53
-61
-69
-86
-71
-84
-89
-80
-74
-70
-79
-78
-83
-80
-103
-94
-86
-79
-91
-86
-89
-108
-91
-108
-93
-96
-85
-96
-99
-98
-111
-96
-101
-79
-106
-88
-93
-119
-99
-119
-105
-105
-86
-103
-106
-105
-105
-99
-120
-110
-111
-96
-91
-99
-103
-103
-109
-124
-105
-108
-99
-105
-116
-100
-109
-111
-100
-103
-96
-96
-103
-110
-103
-109
-93
-100
-91
-109
-96
-95
-111
-108
-95
-85
-96
-103
-104
-99
-113
-90
-91
-94
-95
-83
-84
-79
-76
-79
-70
-79
-63
-60
-61
-58
-66
-64
-49
-46
-45
-34
-25
-49
-41
-49
-41
-34
-49
-39
-50
-65
-61
-70
-71
-73
-71
-56
-51
-60
-51
-60
-53
-49
-44
-23
-33
-20
6
28
98
214
361
553
725
849
860
761
580
370
174
41
-50
-69
-73
-58
-50
-68
-66
-81
-74
-89
-89
-100
-108
-111
-115
-116
-109
-101
-108
-119
-121
-124
-121
-128
-135
-105
-106
-130
-128
-118
-123
-131
-124
-118
-116
-119
-135
-133
-133
-119
-121
-123
-133
-115
-125
-133
-130
-120
-120
-124
-104
-109
-130
-133
-126
-130
-126
-123
-115
-113
-115
-125
-126
-116
-126
-126
-119
-110
-111
-113
-121
-120
-123
-123
-93
-91
-79
-91
-88
-94
-80
-70
-49
-36
-20
-23
-13
-14
-8
-10
-21
-15
-10
-16
-16
-26
-31
-33
-25
-29
-18
-20
-25
-26
-45
-35
-41
-35
-31
-29
-24
-31
-35
-45
-36
-46
-25
-33
-34
-39
-44
-45
-46
-43
-39
-55
-50
-48
-49
-64
-66
-60
-70
-70
-51
-63
-56
-60
-63
-61
-69
-64
-61
-71
-64
-86
-83
-78
-76
-78
-66
-78
-78
-70
-80
-90
-76
-80
-76
-76
-75
-84
-84
-90
-90
-84
-78
-83
-66
-84
-80
-89
-83
-75
-65
-76
-80
-71
-79
-83
-90
-75
-79
-75
-73
-85
-84
-84
-79
-88
-85
-69
-74
-80
-86
-95
-86
-86
-80
-80
-78
-76
-93
-83
-84
-80
-69
-73
-65
-73
-71
-66
-80
-65
-63
-48
-44
-55
-50
-68
-53
-53
-51
-44
-36
-30
-35
-38
-39
-34
-40
-29
-25
-21
-20
-15
-38
-40
-66
-50
-49
-48
-45
-28
-46
-53
-38
-39
-40
-30
-11
-15
1
21
61
144
271
438
624
778
873
865
725
566
373
216
99
30
-13
-16
-28
-40
-45
-48
-50
-61
-76
-69
-83
-90
-98
-93
-96
-103
-76
-103
-99
-121
-116
-111
-109
-125
-118
-115
-116
-113
-128
-130
-130
-131
-111
-121
-115
-126
-128
-129
-124
-108
-110
-118
-94
-108
-115
-123
-120
-119
-105
-104
-100
-109
-104
-118
-118
-115
-93
-108
-104
-111
-108
-125
-110
-113
-108
-100
-110
-105
-108
-111
-111
-114
-108
-98
-81
-84
-75
-61
-73
-45
-33
-25
-19
-15
-5
-18
-3
-14
-24
-5
0
-11
-9
-19
-33
-40
-30
-33
-36
-16
-30
-34
-43
-35
-31
-35
-40
-25
-39
-36
-40
-45
-49
-38
-55
-43
-39
-51
-58
-59
-65
-58
-51
-59
-64
-56
-56
-74
-69
-75
-59
-70
-61
-63
-73
-76
-90
-88
-75
-98
-81
-81
-84
-83
-80
-90
-98
-90
-85
-80
-80
-93
-96
-98
-96
-96
-85
-93
-95
-95
-106
-100
-95
-109
-100
-85
-83
-90
-94
-108
-103
-95
-100
-91
-93
-91
-94
-91
-111
-115
-105
-109
-83
-90
-85
-103
-108
-108
-109
-96
-101
-103
-95
-99
-95
-106
-116
-116
-103
-108
-91
-105
-95
-90
-111
-115
-96
-100
-95
-99
-95
-100
-98
-110
-80
-74
-78
-79
-81
-73
-71
-76
-71
-53
-51
-50
-60
-50
-53
-61
-49
-54
-36
-41
-58
-55
-64
-70
-85
-79
-76
-65
-64
-65
-79
-60
-65
-64
-45
-34
-45
-39
-34
-33
-23
34
78
166
278
395
536
679
789
849
823
723
553
383
200
79
0
-48
-60
-61
-71
-60
-75
-103
-115
-116
-130
-105
-116
-111
-113
-143
-144
-134
-128
-136
-126
-129
-134
-146
-148
-155
-159
-146
-123
-151
-143
-148
-148
-148
-148
-145
-134
-129
-131
-141
-153
-144
-145
-148
-140
-125
-129
-136
-139
-141
-140
-136
-134
-131
-125
-135
-150
-148
-138
-150
-136
-131
-136
-125
-138
-139
-145
-156
-135
-156
-136
-120
-118
-130
-114
-125
-105
-91
-69
-50
-40
-41
-31
-39
-33
-30
-26
-29
-18
-21
-28
-35
-45
-28
-31
-39
-36
-30
-55
-56
-53
-45
-55
-38
-26
-35
-48
-60
-49
-53
-53
-46
-35
-39
-43
-36
-60
-66
-45
-50
-56
-46
-53
-61
-71
-61
-56
-63
-65
-60
-65
-80
-66
-79
-80
-76
-74
-69
-68
-83
-85
-74
-96
-85
-69
-86
-75
-89
-80
-79
-79
-71
-80
-83
-81
-80
-94
-103
-88
-86
-90
-91
-81
-90
-100
-84
-101
-100
-93
-85
-85
-79
-85
-88
-94
-88
-86
-89
-85
-78
-94
-96
-73
-105
-105
-101
-85
-88
-83
-95
-90
-104
-93
-86
-64
-76
-86
-83
-86
-95
-91
-84
-81
-84
-76
-73
-70
-91
-95
-94
-78
-84
-71
-95
-89
-81
-85
-76
-65
-86
-63
-78
-66
-71
-71
-74
-64
-53
-48
-45
-39
-44
-45
-56
-50
-34
-33
-20
-19
-34
-43
-41
-48
-31
-30
-48
-45
-39
-41
-53
-75
-54
-53
-50
-44
-26
-29
-39
-25
-28
6
11
9
49
99
208
349
531
723
883
940
859
674
419
201
49
-48
-80
-61
-38
-44
-34
-53
-70
-78
-83
-84
-74
-86
-80
-94
-106
-113
-111
-98
-98
-98
-101
-110
-118
-120
-123
-115
-115
-118
-116
-110
-121
-126
-125
-129
-99
-110
-109
-101
-113
-120
-130
-116
-110
-108
-89
-96
-110
-104
-110
-111
-114
-108
-101
-91
-110
-115
-110
-109
-104
-114
-104
-110
-113
-111
-125
-106
-110
-105
-100
-100
-91
-111
-104
-94
-93
-71
-60
-55
-36
-49
-25
-19
-25
-6
9
24
26
13
14
0
-6
4
-3
11
1
-16
-21
-16
-24
-16
-21
-6
-15
-20
-25
-23
-25
-38
-31
-26
-23
-20
-24
-33
-41
-30
-29
-20
-24
-26
-41
-36
-41
-61
-29
-36
-35
-58
-35
-50
-60
-60
-49
-46
-45
-50
-55
-63
-66
-70
-65
-64
-59
-58
-56
-68
-65
-73
-86
-84
-89
-69
-66
-65
-70
-80
-80
-88
-81
-71
-63
-63
-75
-80
-91
-96
-83
-75
-74
-68
-78
-80
-83
-94
-91
-83
-71
-76
-74
-74
-88
-89
-89
-80
-75
-83
-71
-90
-86
-73
-93
-81
-80
-86
-73
-75
-78
-79
-90
-94
-96
-75
-76
-75
-80
-93
-84
-89
-85
-88
-60
-61
-59
-61
-69
-61
-64
-55
-55
-46
-36
-40
-56
-54
-40
-56
-33
-16
-30
-18
-38
-41
-41
-39
-45
-53
-36
-54
-50
-65
-63
-60
-54
-44
-33
-38
-26
-40
-30
-13
4
55
135
259
426
581
740
815
788
668
485
304
141
23
-30
-60
-53
-51
-38
-34
-51
-70
-84
-88
-93
-83
-93
-85
-85
-88
-104
-113
-98
-100
-110
-114
-99
-111
-118
-123
-116
-124
-106
-121
-119
-125
-121
-128
-121
-125
-120
-121
-115
-108
-120
-121
-129
-116
-121
-111
-119
-110
-110
-119
-116
-128
-120
-118
-115
-106
-115
-124
-123
-115
-130
-123
-101
-108
-105
-114
-123
-119
-109
-116
-119
-96
-104
-99
-119
-130
-109
-91
-79
-64
-64
-53
-43
-45
-23
-23
-11
9
8
-3
-5
-15
-20
-21
-20
-20
-9
-23
-26
-23
-43
-44
-35
-21
-38
-28
-36
-35
-50
-49
-49
-56
-28
-44
-43
-40
-41
-48
-54
-53
-51
-49
-44
-56
-70
-59
-59
-70
-71
-54
-58
-61
-76
-86
-79
-79
-80
-76
-73
-79
-94
-89
-95
-93
-99
-79
-84
-80
-96
-103
-100
-99
-96
-104
-93
-94
-91
-94
-103
-99
-114
-101
-95
-104
-100
-100
-96
-98
-106
-116
-99
-104
-104
-105
-114
-108
-115
-111
-113
-104
-101
-104
-108
-110
-109
-120
-111
-101
-99
-104
-113
-111
-108
-119
-109
-104
-101
-108
-103
-109
-113
-114
-100
-111
-103
-101
-106
-119
-111
-116
-114
-104
-96
-110
-103
-109
-113
-108
-90
-100
-89
-78
-74
-80
-80
-85
-88
-78
-73
-75
-54
-48
-68
-71
-73
-78
-69
-64
-66
-80
-93
-85
-96
-95
-101
-78
-80
-80
-66
-65
-63
-61
-55
-29
-21
10
56
130
231
375
523
688
811
870
835
729
543
364
204
85
11
-24
-68
-78
-90
-81
-100
-110
-116
-114
-120
-126
-145
-145
-151
-144
-153
-149
-155
-154
-168
-165
-170
-169
-174
-166
-156
-170
-151
-160
-165
-165
-169
-170
-153
-155
-166
-158
-173
-170
-154
-145
-156
-154
-146
-166
-161
-165
-166
-168
-165
-149
-161
-159
-169
-161
-174
-161
-160
-148
-160
-151
-158
-173
-166
-160
-160
-160
-158
-151
-159
-156
-144
-150
-126
-126
-93
-76
-79
-75
-69
-65
-64
-55
-39
-46
-38
-55
-56
-71
-65
-70
-61
-83
-59
-66
-83
-96
-88
-75
-85
-79
-78
-74
-83
-84
-86
-90
-85
-91
-65
-88
-76
-103
-96
-105
-109
-100
-93
-85
-93
-100
-108
-113
-111
-121
-99
-113
-114
-128
-131
-119
-136
-111
-121
-125
-136
-134
-134
-135
-124
-125
-136
-130
-133
-138
-138
-141
-129
-130
-144
-129
-131
-138
-139
-135
-146
-146
-146
-133
-134
-143
-143
-143
-159
-150
-126
-129
-141
-135
-145
-141
-160
-145
-149
-141
-138
-134
-143
-140
-151
-140
-148
-144
-133
-134
-140
-151
-148
-140
-146
-141
-151
-126
-143
-154
-145
-143
-144
-145
-124
-140
-134
-145
-145
-151
-135
-135
-135
-120
-123
-134
-130
-139
-121
-134
-131
-116
-106
-111
-113
-106
-116
-113
-91
-93
-80
-80
-80
-86
-85
-80
-81
-85
-65
-74
-79
-80
-90
-109
-99
-98
-88
-90
-89
-93
-105
-110
-98
-84
-84
-63
-78
-59
-59
-51
-45
-33
6
73
179
311
485
656
799
883
831
694
486
269
93
-30
-95
-113
-109
-100
-95
-89
-109
-130
-140
-143
-140
-149
-118
-139
-139
-158
-153
-155
-153
-153
-151
-145
-153
-154
-158
-164
-173
-159
-160
-149
-154
-146
-171
-165
-156
-151
-159
-145
-151
-154
-151
-164
-153
-153
-153
-153
-141
-140
-151
-145
-165
-149
-143
-146
-145
-144
-135
-135
-154
-148
-150
-148
-131
-133
-146
-149
-131
-153
-138
-134
-119
-118
-108
-120
-116
-113
-105
-89
-64
-85
-59
-55
-55
-59
-50
-40
-30
-21
-15
-23
-30
-38
-38
-31
-35
-39
-44
-44
-48
-45
-45
-63
-46
-56
-54
-54
-60
-66
-55
-74
-70
-63
-54
-61
-70
-79
-51
-65
-79
-59
-65
-70
-65
-83
-78
-98
-75
-86
-64
-71
-73
-89
-78
-96
-101
-88
-83
-83
-83
-83
-85
-103
-98
-95
-104
-95
-99
-100
-105
-110
-114
-120
-113
-110
-100
-98
-100
-116
-119
-106
-115
-111
-111
-96
-119
-124
-130
-126
-124
-101
-109
-95
-108
-121
-125
-119
-103
-111
-108
-94
-108
-115
-121
-124
-126
-111
-119
-118
-119
-114
-126
-111
-116
-126
-131
-118
-105
-116
-116
-115
-121
-123
-113
-118
-118
-101
-110
-119
-104
-124
-118
-115
-100
-118
-105
-113
-120
-120
-119
-114
-101
-103
-106
-99
-95
-101
-91
-94
-78
-70
-83
-81
-79
-75
-71
-74
-68
-58
-58
-59
-44
-63
-50
-55
-56
-48
-58
-63
-76
-80
-80
-95
-86
-73
-69
-63
-61
-70
-63
-63
-55
-55
-19
4
51
129
245
393
555
705
809
823
743
573
399
239
106
8
-25
-50
-53
-58
-73
-65
-83
-95
-98
-99
-85
-120
-103
-120
-121
-124
-121
-131
-123
-131
-136
-126
-148
-131
-134
-131
-130
-136
-141
-129
-141
-140
-150
-140
-149
-133
-145
-143
-144
-144
-140
-136
-126
-133
-126
-125
-146
-136
-140
-140
-140
-130
-115
-135
-131
-131
-135
-130
-143
-121
-121
-128
-136
-129
-125
-130
-126
-128
-123
-130
-133
-131
-124
-111
-103
-85
-69
-75
-73
-54
-51
-35
-26
-35
-19
-20
-31
-39
-39
-33
-39
-26
-39
-59
-50
-50
-56
-63
-53
-59
-40
-54
-49
-70
-65
-70
-63
-61
-55
-58
-46
-55
-76
-76
-79
-76
-76
-78
-73
-65
-88
-80
-85
-86
-86
-79
-80
-86
-96
-96
-105
-115
-110
-104
-103
-94
-103
-106
-120
-120
-110
-110
-108
-99
-113
-115
-125
-129
-121
-111
-120
-113
-114
-111
-119
-135
-125
-128
-120
-113
-116
-118
-128
-135
-133
-121
-126
-123
-125
-123
-136
-128
-128
-130
-131
-114
-123
-134
-130
-138
-141
-138
-131
-134
-133
-136
-131
-134
-136
-136
-139
-138
-128
-128
-126
-136
-140
-143
-140
-130
-120
-129
-131
-130
-138
-143
-141
-125
-115
-124
-113
-120
-116
-144
-133
-121
-110
-121
-113
-113
-116
-108
-119
-103
-105
-103
-83
-86
-93
-89
-89
-84
-79
-71
-63
-69
-78
-80
-91
-98
-109
-96
-91
-106
-98
-95
-85
-80
-84
-71
-63
-59
-69
-64
-44
-44
-28
9
64
155
248
386
524
649
775
819
784
639
451
271
109
-9
-65
-94
-98
-105
-99
-110
-120
-140
-145
-140
-140
-149
-136
-146
-149
-158
-159
-169
-165
-168
-170
-174
-174
-173
-171
-175
-168
-178
-163
-151
-166
-173
-163
-163
-173
-159
-163
-146
-158
-160
-173
-156
-175
-171
-161
-163
-154
-163
-155
-163
-174
-179
-168
-151
-156
-161
-163
-176
-176
-173
-171
-163
-153
-156
-166
-158
-158
-178
-153
-151
-129
-123
-116
-116
-115
-99
-99
-84
-58
-59
-49
-63
-50
-51
-64
-59
-69
-54
-55
-60
-75
-65
-79
-69
-86
-70
-56
-71
-83
-81
-79
-85
-80
-81
-80
-76
-79
-83
-88
-84
-80
-76
-64
-75
-83
-91
-91
-101
-93
-116
-95
-89
-86
-105
-101
-106
-110
-114
-104
-98
-96
-109
-100
-131
-105
-110
-115
-111
-115
-116
-111
-110
-119
-119
-130
-113
-119
-115
-118
-114
-130
-133
-123
-125
-116
-119
-124
-128
-133
-130
-134
-118
-118
-123
-128
-120
-133
-130
-113
-124
-123
-115
-125
-125
-124
-128
-114
-120
-129
-114
-134
-124
-138
-130
-123
-128
-119
-106
-114
-125
-120
-130
-130
-131
-110
-110
-101
-113
-126
-120
-124
-128
-120
-111
-104
-110
-115
-113
-119
-111
-106
-116
-96
-100
-116
-105
-116
-111
-126
-113
-100
-96
-98
-98
-113
-109
-113
-99
-91
-78
-79
-73
-80
-80
-85
-75
-65
-66
-64
-50
-60
-71
-75
-70
-41
-43
-36
-48
-55
-60
-70
-50
-63
-61
-71
-64
-71
-76
-79
-76
-73
-59
-45
-43
-35
-33
-28
-14
21
84
189
345
525
730
864
910
860
708
519
298
150
28
-38
-71
-76
-70
-66
-50
-71
-86
-91
-110
-100
-106
-101
-90
-106
-103
-110
-120
-113
-128
-134
-123
-115
-130
-135
-129
-145
-138
-120
-128
-115
-123
-116
-136
-144
-151
-153
-129
-120
-134
-116
-131
-139
-136
-135
-138
-123
-125
-120
-128
-120
-140
-138
-134
-128
-120
-115
-118
-128
-121
-130
-124
-113
-123
-106
-116
-128
-120
-140
-125
-120
-115
-99
-90
-109
-115
-103
-80
-70
-55
-44
-23
-16
-25
-18
-20
-19
-5
0
-19
-15
-13
-28
-23
-35
-31
-30
-23
-38
-41
-33
-51
-50
-28
-28
-40
-35
-46
-39
-50
-55
-40
-28
-46
-44
-41
-43
-46
-54
-53
-55
-55
-45
-56
-51
-59
-71
-71
-59
-56
-64
-68
-70
-75
-76
-76
-75
-85
-71
-61
-79
-91
-91
-76
-80
-93
-78
-79
-90
-91
-98
-95
-90
-99
-85
-110
-84
-95
-94
-98
-105
-115
-81
-88
-94
-78
-99
-109
-98
-103
-109
-98
-83
-91
-93
-95
-104
-111
-106
-90
-98
-91
-103
-104
-105
-110
-99
-90
-100
-90
-91
-110
-104
-105
-98
-83
-80
-84
-95
-95
-100
-99
-101
-105
-93
-91
-85
-88
-100
-111
-99
-96
-93
-80
-75
-90
-90
-99
-109
-93
-71
-68
-64
-65
-64
-70
-68
-76
-61
-58
-48
-49
-50
-51
-51
-45
-40
-60
-36
-38
-41
-53
-61
-65
-73
-66
-68
-49
-55
-66
-74
-51
-48
-54
-33
-25
-24
-14
4
35
78
163
290
450
591
719
826
851
781
659
495
339
198
79
11
-50
-50
-55
-56
-59
-55
-69
-81
-75
-98
-100
-106
-98
-90
-99
-100
-109
-106
-113
-135
-129
-111
-111
-108
-120
-119
-123
-118
-105
-115
-119
-111
-106
-123
-126
-133
-115
-129
-115
-113
-113
-113
-120
-133
-116
-120
-118
-106
-121
-116
-123
-119
-120
-121
-105
-109
-114
-118
-109
-111
-108
-130
-119
-116
-115
-108
-109
-115
-119
-118
-108
-91
-90
-80
-69
-60
-60
-58
-33
-36
-20
0
-4
-10
-30
-15
-6
-6
1
-11
-11
-30
-19
-31
-25
-15
-21
-28
-24
-39
-35
-41
-43
-40
-38
-35
-30
-54
-55
-38
-59
-44
-61
-63
-46
-40
-70
-66
-63
-61
-56
-71
-64
-63
-63
-83
-83
-79
-80
-71
-74
-71
-80
-88
-86
-90
-96
-81
-86
-81
-85
-110
-113
-103
-111
-91
-96
-93
-83
-100
-108
-108
-104
-101
-91
-84
-91
-86
-100
-103
-110
-93
-98
-98
-91
-104
-100
-101
-115
-116
-106
-104
-113
-116
-115
-113
-111
-116
-115
-109
-94
-99
-125
-110
-118
-121
-121
-114
-104
-119
-106
-106
-123
-128
-118
-118
-103
-101
-98
-119
-103
-125
-121
-118
-113
-113
-120
-113
-119
-126
-115
-119
-111
-109
-106
-109
-113
-116
-110
-110
-103
-88
-94
-78
-80
-84
-96
-91
-86
-83
-63
-76
-63
-70
-74
-91
-89
-79
-75
-74
-73
-91
-91
-105
-103
-90
-85
-80
-75
-89
-79
-94
-83
-73
-83
-65
-58
-39
-35
-5
39
129
269
440
621
756
824
761
599
390
209
54
-58
-93
-128
-109
-114
-111
-103
-114
-109
-128
-141
-136
-145
-146
-149
-148
-148
-150
-148
-149
-149
-148
-160
-144
-159
-159
-160
-153
-164
-154
-166
-159
-160
-159
-151
-159
-148
-160
-159
-154
-148
-151
-151
-153
-166
-156
-160
-169
-155
-156
-148
-149
-153
-163
-160
-159
-166
-153
-154
-158
-160
-151
-156
-160
-168
-150
-149
-145
-155
-166
-155
-155
-149
-144
-129
-140
-148
-134
-129
-130
-115
-104
-103
-79
-64
-66
-74
-61
-54
-65
-46
-45
-43
-53
-55
-55
-76
-70
-59
-80
-74
-69
-71
-74
-85
-80
-84
-79
-80
-83
-99
-86
-86
-86
-86
-81
-90
-90
-88
-106
-95
-104
-118
-99
-95
-86
-108
-99
-105
-130
-113
-113
-123
-111
-108
-124
-129
-133
-128
-130
-138
-115
-115
-123
-141
-138
-150
-148
-151
-133
-145
-130
-144
-154
-154
-158
-140
-155
-148
-139
-139
-160
-154
-143
-151
-145
-140
-146
-149
-145
-165
-154
-149
-146
-136
-148
-149
-134
-151
-158
-151
-150
-151
-131
-146
-155
-146
-160
-153
-145
-139
-139
-143
-151
-141
-154
-159
-160
-135
-140
-143
-134
-150
-151
-153
-159
-160
-153
-151
-144
-151
-158
-149
-160
-143
-150
-149
-150
-136
-151
-136
-146
-134
-148
-123
-131
-115
-121
-120
-118
-113
-113
-101
-103
-96
-101
-106
-111
-99
-114
-111
-95
-96
-121
-123
-118
-115
-125
-111
-130
-108
-100
-91
-114
-99
-98
-79
-65
-61
-40
-16
50
119
265
428
591
749
825
805
704
526
370
195
93
8
-46
-71
-95
-103
-114
-125
-114
-133
-138
-138
-141
-149
-169
-155
-163
-156
-165
-170
-160
-179
-185
-184
-174
-188
-174
-153
-179
-181
-183
-181
-179
-183
-170
-174
-185
-155
-191
-198
-174
-175
-169
-166
-153
-166
-161
-191
-178
-166
-168
-161
-160
-166
-169
-169
-168
-186
-173
-170
-160
-160
-153
-174
-180
-179
-168
-160
-165
-156
-170
-153
-176
-155
-156
-143
-144
-135
-121
-116
-115
-108
-93
-66
-56
-55
-56
-44
-61
-50
-64
-61
-53
-45
-55
-58
-76
-68
-93
-69
-65
-65
-76
-58
-84
-84
-84
-83
-76
-73
-63
-74
-76
-61
-84
-90
-94
-70
-80
-80
-69
-89
-100
-99
-106
-96
-101
-89
-101
-113
-110
-120
-116
-116
-100
-105
-108
-109
-130
-130
-133
-133
-120
-120
-113
-135
-124
-124
-134
-128
-123
-125
-111
-118
-134
-138
-140
-130
-138
-124
-130
-126
-126
-144
-135
-148
-136
-129
-119
-131
-131
-136
-150
-133
-135
-138
-135
-133
-134
-140
-135
-145
-145
-140
-134
-131
-123
-124
-151
-131
-138
-144
-124
-131
-136
-133
-128
-141
-140
-128
-126
-131
-126
-124
-131
-131
-131
-146
-143
-131
-120
-119
-125
-126
-130
-128
-133
-126
-119
-128
-124
-118
-136
-123
-114
-113
-91
-88
-88
-90
-98
-96
-95
-85
-70
-68
-79
-89
-85
-93
-98
-96
-99
-95
-98
-95
-109
-105
-103
-93
-98
-88
-74
-73
-79
-70
-70
-79
-50
-48
-9
20
90
164
278
418
571
714
803
803
711
536
349
181
34
-40
-93
-100
-100
-93
-120
-114
-133
-136
-120
-131
-135
-138
-148
-170
-156
-160
-159
-159
-150
-156
-158
-168
-181
-164
-176
-173
-151
-163
-159
-175
-176
-154
-170
-168
-164
-161
-165
-166
-186
-179
-159
-159
-166
-153
-165
-163
-169
-159
-163
-148
-158
-168
-159
-160
-160
-166
-170
-165
-155
-158
-155
-155
-161
-161
-174
-173
-153
-146
-151
-156
-155
-155
-158
-139
-129
-118
-120
-96
-100
-91
-98
-83
-70
-66
-55
-40
-50
-54
-59
-61
-66
-55
-45
-53
-48
-63
-71
-71
-81
-88
-73
-70
-61
-70
-80
-84
-80
-90
-95
-73
-74
-88
-96
-108
-91
-85
-74
-83
-86
-90
-89
-110
-105
-114
-111
-110
-103
-100
-118
-116
-125
-114
-106
-103
-108
-113
-123
-125
-136
-119
-121
-118
-128
-113
-125
-119
-136
-133
-138
-143
-125
-129
-124
-150
-131
-141
-138
-148
-135
-139
-134
-133
-153
-149
-151
-145
-151
-149
-145
-150
-154
-151
-150
-154
-145
-150
-153
-155
-143
-150
-160
-156
-158
-139
-145
-136
-143
-156
-141
-159
-139
-148
-144
-143
-139
-140
-158
-153
-154
-153
-150
-144
-146
-141
-140
-149
-141
-154
-140
-131
-140
-135
-151
-134
-144
-136
-140
-120
-116
-118
-115
-115
-114
-111
-101
-106
-90
-100
-113
-105
-99
-110
-108
-90
-103
-105
-100
-115
-125
-119
-115
-121
-106
-116
-124
-118
-114
-110
-101
-99
-81
-85
-78
-79
-55
-35
36
131
280
443
638
759
784
673
481
290
95
-30
-111
-140
-144
-128
-131
-114
-124
-151
-138
-145
-164
-165
-170
-169
-153
-165
-153
-163
-180
-179
-185
-173
-191
-176
-153
-169
-174
-189
-178
-184
-170
-164
-170
-160
-169
-171
-180
-175
-193
-179
-149
-158
-159
-170
-178
-180
-170
-179
-165
-158
-151
-160
-178
-174
-176
-170
-171
-170
-159
-154
-175
-168
-176
-174
-176
-170
-155
-165
-159
-170
-173
-156
-164
-143
-136
-135
-135
-124
-120
-114
-99
-100
-75
-84
-63
-73
-68
-64
-73
-53
-64
-45
-69
-71
-74
-78
-79
-95
-89
-86
-91
-89
-90
-105
-105
-95
-104
-104
-91
-89
-104
-95
-109
-111
-113
-103
-103
-115
-91
-113
-119
-128
-111
-121
-120
-103
-115
-119
-129
-134
-135
-135
-121
-124
-124
-146
-126
-148
-125
-146
-130
-128
-146
-145
-145
-151
-160
-145
-140
-144
-148
-150
-150
-150
-153
-164
-160
-156
-151
-153
-151
-159
-163
-170
-173
-150
-149
-154
-159
-161
-156
-165
-160
-160
-170
-163
-150
-161
-173
-171
-166
-173
-170
-160
-156
-166
-165
-171
-165
-165
-170
-165
-174
-171
-161
-171
-184
-170
-173
-141
-156
-153
-179
-154
-171
-168
-156
-158
-160
-180
-153
-171
-173
-158
-143
-148
-131
-144
-148
-135
-131
-136
-128
-123
-123
-114
-123
-124
-133
-126
-120
-131
-114
-124
-129
-124
-148
-150
-140
-138
-134
-128
-131
-135
-119
-126
-113
-99
-94
-69
-49
19
99
239
384
560
691
764
740
609
439
230
59
-45
-111
-139
-139
-134
-143
-148
-170
-160
-183
-163
-174
-176
-180
-183
-184
-195
-208
-188
-193
-209
-191
-203
-200
-206
-220
-208
-204
-203
-200
-203
-201
-215
-224
-215
-205
-191
-203
-204
-220
-213
-210
-210
-205
-199
-201
-204
-209
-213
-215
-209
-210
-198
-183
-210
-203
-210
-210
-219
-215
-213
-206
-195
-205
-201
-211
-223
-204
-206
-205
-193
-193
-208
-203
-211
-201
-186
-184
-166
-168
-151
-145
-146
-129
-105
-105
-111
-86
-110
-103
-99
-114
-106
-105
-111
-100
-110
-116
-131
-130
-125
-135
-119
-120
-116
-123
-138
-141
-143
-143
-124
-128
-131
-129
-133
-150
-158
-139
-143
-145
-131
-138
-134
-148
-159
-143
-158
-153
-143
-151
-158
-160
-188
-164
-165
-156
-168
-170
-176
-164
-193
-186
-181
-175
-189
-176
-173
-190
-190
-188
-185
-190
-178
-179
-191
-185
-204
-200
-198
-199
-200
-191
-186
-188
-203
-196
-196
-188
-191
-186
-191
-191
-204
-191
-208
-203
-199
-176
-200
-205
-193
-200
-205
-190
-211
-186
-195
-206
-204
-198
-191
-200
-194
-198
-200
-196
-213
-200
-215
-209
-200
-198
-200
-209
-204
-211
-221
-221
-203
-205
-191
-185
-191
-196
-209
-208
-188
-203
-200
-190
-191
-191
-178
-206
-199
-195
-180
-170
-163
-165
-180
-159
-175
-170
-169
-149
-145
-143
-145
-154
-160
-163
-156
-160
-156
-155
-156
-170
-180
-169
-168
-149
-150
-148
-129
-146
-123
-138
-119
-105
-81
-49
-9
75
168
286
436
589
724
813
808
701
539
344
140
9
-86
-143
-141
-164
-159
-164
-186
-189
-186
-194
-195
-204
-204
-206
-213
-228
-215
-221
-213
-225
-220
-226
-231
-238
-236
-245
-231
-226
-211
-238
-238
-241
-239
-236
-225
-234
-226
-226
-231
-230
-240
-234
-230
-223
-214
-220
-233
-229
-231
-228
-225
-224
-223
-223
-229
-229
-229
-228
-214
-230
-219
-218
-224
-221
-230
-238
-230
-225
-211
-205
-196
-201
-208
-194
-195
-173
-173
-144
-135
-128
-120
-134
-115
-100
-100
-103
-105
-106
-114
-105
-116
-124
-116
-115
-120
-121
-121
-139
-130
-128
-128
-126
-123
-118
-124
-131
-136
-129
-130
-128
-131
-121
-129
-141
-151
-136
-135
-149
-135
-131
-140
-149
-148
-146
-154
-165
-135
-156
-156
-158
-169
-174
-163
-170
-169
-158
-173
-173
-185
-169
-179
-176
-175
-165
-160
-169
-171
-186
-183
-174
-180
-173
-173
-174
-176
-190
-185
-178
-178
-184
-170
-184
-184
-180
-179
-189
-178
-188
-186
-178
-164
-195
-185
-205
-198
-195
-179
-180
-178
-183
-191
-184
-188
-183
-193
-169
-191
-183
-186
-195
-186
-183
-188
-171
-175
-180
-185
-173
-200
-184
-184
-175
-174
-173
-183
-180
-185
-183
-181
-184
-158
-155
-170
-179
-169
-165
-154
-148
-134
-133
-130
-135
-136
-140
-144
-128
-119
-115
-115
-135
-151
-151
-149
-149
-145
-135
-143
-149
-136
-141
-141
-143
-128
-129
-113
-98
-104
-110
-108
-81
-78
-29
23
110
245
410
561
710
826
825
701
514
308
109
-40
-130
-153
-160
-150
-121
-135
-154
-165
-180
-174
-184
-175
-174
-170
-196
-199
-209
-199
-208
-199
-198
-206
-199
-206
-203
-220
-204
-209
-200
-180
-203
-199
-200
-201
-208
-189
-199
-196
-190
-193
-199
-206
-191
-199
-211
-186
-190
-203
-191
-193
-204
-195
-196
-191
-175
-184
-184
-181
-208
-184
-189
-190
-191
-178
-195
-209
-196
-184
-200
-165
-179
-174
-169
-151
-160
-146
-131
-120
-103
-103
-91
-86
-88
-86
-81
-73
-71
-85
-74
-96
-91
-81
-93
-98
-98
-99
-98
-115
-101
-111
-113
-115
-108
-95
-104
-105
-106
-115
-110
-109
-116
-113
-113
-116
-120
-123
-134
-120
-113
-116
-119
-120
-124
-129
-120
-138
-131
-133
-129
-123
-134
-138
-146
-143
-153
-143
-133
-141
-130
-145
-149
-160
-144
-146
-145
-141
-149
-160
-170
-153
-171
-169
-160
-149
-149
-161
-159
-161
-156
-161
-151
-143
-159
-159
-166
-166
-179
-164
-154
-164
-160
-150
-156
-164
-168
-176
-170
-170
-160
-155
-165
-173
-178
-168
-165
-163
-143
-155
-153
-166
-178
-165
-165
-173
-143
-151
-155
-150
-163
-159
-156
-163
-151
-146
-136
-149
-140
-148
-163
-150
-144
-131
-131
-134
-129
-136
-133
-129
-116
-114
-109
-118
-116
-116
-116
-115
-105
-119
-93
-104
-116
-115
-130
-130
-138
-128
-126
-118
-120
-135
-114
-126
-119
-119
-109
-80
-93
-88
-73
-53
5
85
215
369
560
694
778
729
571
370
159
1
-91
-140
-158
-155
-143
-144
-148
-151
-139
-155
-159
-180
-180
-175
-179
-191
-169
-180
-176
-191
-185
-196
-201
-198
-176
-183
-179
-200
-193
-193
-195
-191
-196
-183
-185
-185
-190
-191
-209
-193
-204
-178
-183
-175
-205
-200
-198
-209
-191
-183
-183
-175
-183
-189
-193
-194
-204
-189
-181
-179
-180
-200
-193
-188
-189
-186
-180
-175
-181
-181
-185
-178
-176
-160
-153
-140
-141
-118
-128
-129
-115
-113
-86
-74
-73
-83
-70
-81
-84
-95
-75
-78
-75
-98
-94
-93
-100
-109
-106
-88
-95
-95
-98
-111
-120
-123
-109
-119
-114
-119
-128
-124
-119
-111
-111
-128
-114
-113
-118
-131
-130
-133
-130
-130
-138
-125
-139
-154
-154
-150
-135
-145
-133
-143
-141
-139
-149
-158
-150
-156
-156
-146
-141
-150
-155
-174
-151
-164
-160
-143
-155
-164
-154
-170
-184
-168
-170
-164
-164
-159
-160
-171
-171
-175
-171
-164
-154
-163
-155
-158
-174
-173
-168
-159
-151
-153
-149
-160
-169
-173
-173
-170
-160
-163
-144
-160
-161
-173
-171
-158
-166
-160
-166
-156
-174
-165
-170
-171
-173
-151
-151
-149
-151
-153
-161
-163
-158
-144
-144
-136
-143
-143
-150
-141
-136
-123
-109
-120
-123
-110
-120
-115
-111
-115
-116
-99
-120
-109
-110
-119
-120
-115
-104
-106
-119
-116
-134
-125
-121
-124
-106
-94
-96
-106
-95
-85
-76
-58
-34
29
126
273
429
639
781
830
764
585
376
168
0
-75
-124
-136
-135
-119
-120
-129
-121
-160
-159
-173
-183
-170
-175
-169
-174
-158
-180
-193
-194
-198
-180
-171
-175
-189
-199
-196
-199
-201
-185
-191
-198
-188
-188
-209
-196
-186
-183
-178
-176
-175
-179
-186
-189
-188
-175
-183
-183
-171
-166
-166
-180
-180
-183
-179
-171
-155
-169
-185
-185
-185
-175
-179
-170
-174
-184
-179
-176
-191
-186
-176
-175
-151
-151
-148
-153
-136
-145
-130
-111
-83
-76
-80
-69
-68
-75
-51
-58
-54
-60
-55
-64
-71
-68
-73
-69
-69
-68
-61
-74
-71
-81
-65
-69
-71
-80
-73
-70
-73
-88
-83
-95
-79
-68
-76
-71
-79
-95
-111
-83
-78
-91
-85
-91
-95
-105
-100
-111
-110
-96
-95
-106
-108
-109
-111
-108
-110
-111
-96
-109
-120
-115
-114
-125
-120
-123
-116
-118
-109
-119
-128
-121
-120
-128
-125
-115
-124
-121
-126
-124
-131
-134
-119
-120
-128
-125
-125
-136
-144
-131
-125
-126
-128
-125
-126
-115
-136
-129
-119
-116
-104
-130
-106
-125
-123
-131
-110
-120
-101
-101
-113
-109
-131
-133
-125
-114
-111
-113
-109
-120
-116
-121
-113
-110
-110
-105
-115
-103
-111
-124
-109
-120
-111
-113
-95
-93
-85
-105
-110
-95
-105
-96
-76
-85
-76
-85
-80
-86
-65
-68
-63
-63
-68
-69
-65
-68
-75
-71
-61
-64
-80
-83
-75
-84
-71
-71
-70
-53
-61
-51
-43
-66
-49
-26
-5
41
114
203
338
486
654
769
866
844
729
578
408
255
129
40
-5
-25
-41
-48
-61
-65
-84
-93
-105
-116
-106
-111
-101
-123
-123
-121
-129
-130
-133
-123
-125
-138
-124
-136
-134
-140
-138
-143
-141
-139
-138
-153
-148
-145
-134
-135
-141
-144
-150
-136
-136
-145
-158
-133
-130
-121
-140
-138
-151
-145
-141
-134
-134
-118
-135
-144
-143
-146
-146
-136
-130
-124
-135
-141
-129
-136
-139
-143
-130
-123
-130
-129
-133
-120
-123
-106
-106
-83
-80
-71
-61
-53
-48
-35
-31
-28
-26
-25
-20
-31
-30
-36
-24
-21
-40
-30
-43
-39
-56
-43
-44
-36
-45
-40
-44
-49
-51
-53
-58
-59
-41
-45
-44
-55
-60
-49
-45
-64
-59
-53
-56
-60
-70
-66
-71
-73
-63
-60
-64
-78
-88
-84
-84
-68
-78
-85
-83
-80
-93
-103
-105
-90
-85
-85
-79
-88
-86
-105
-99
-100
-91
-95
-100
-95
-105
-101
-115
-98
-94
-80
-91
-85
-99
-93
-104
-113
-90
-91
-105
-101
-91
-104
-100
-118
-108
-111
-93
-88
-96
-105
-106
-105
-106
-105
-99
-96
-105
-95
-98
-106
-110
-103
-101
-86
-83
-103
-98
-96
-106
-95
-103
-96
-85
-104
-104
-88
-110
-113
-96
-80
-85
-86
-74
-73
-85
-84
-73
-66
-50
-55
-51
-54
-68
-61
-58
-49
-44
-40
-44
-46
-51
-63
-73
-65
-59
-63
-49
-63
-51
-60
-51
-45
-26
-16
-10
4
16
55
124
218
350
506
676
805
903
923
868
724
573
394
236
125
30
-23
-54
-53
-63
-60
-66
-76
-89
-99
-111
-135
-130
-133
-130
-121
-120
-128
-138
-145
-150
-140
-136
-150
-129
-133
-139
-144
-148
-151
-141
-141
-141
-135
-149
-129
-151
-139
-150
-135
-123
-128
-151
-139
-140
-163
-146
-135
-140
-135
-140
-138
-134
-145
-158
-140
-136
-140
-134
-143
-140
-143
-146
-146
-134
-158
-138
-140
-130
-150
-144
-123
-116
-109
-104
-93
-80
-66
-63
-54
-43
-44
-33
-30
-39
-33
-38
-31
-33
-36
-28
-45
-51
-44
-60
-50
-58
-55
-46
-54
-60
-65
-56
-60
-73
-68
-61
-59
-65
-63
-61
-68
-70
-76
-70
-65
-59
-74
-79
-85
-80
-80
-85
-69
-90
-96
-108
-94
-103
-109
-108
-93
-86
-96
-95
-110
-115
-118
-115
-106
-100
-100
-106
-121
-120
-111
-124
-100
-104
-105
-113
-121
-125
-130
-116
-119
-123
-103
-118
-131
-125
-146
-138
-120
-119
-115
-120
-111
-114
-134
-131
-125
-118
-116
-118
-124
-128
-125
-119
-118
-126
-118
-119
-121
-123
-125
-140
-131
-114
-118
-110
-115
-115
-113
-115
-110
-123
-115
-118
-104
-119
-120
-119
-128
-126
-121
-109
-110
-120
-125
-115
-136
-121
-115
-115
-98
-93
-110
-104
-98
-108
-93
-90
-68
-85
-69
-84
-76
-74
-84
-71
-76
-59
-64
-90
-89
-105
-86
-100
-100
-79
-84
-84
-90
-81
-80
-73
-69
-58
-49
-30
-38
-20
10
55
146
256
433
589
723
834
854
766
620
438
238
105
0
-68
-91
-104
-109
-98
-85
-109
-115
-133
-143
-160
-145
-140
-158
-146
-140
-151
-161
-158
-163
-166
-160
-153
-151
-153
-164
-160
-173
-166
-160
-158
-165
-150
-160
-169
-163
-158
-160
-151
-146
-156
-166
-174
-165
-171
-165
-158
-144
-150
-149
-143
-151
-165
-156
-153
-146
-153
-154
-150
-160
-163
-160
-159
-149
-140
-156
-156
-165
-169
-163
-141
-154
-146
-140
-149
-153
-139
-123
-111
-105
-84
-80
-69
-71
-75
-59
-45
-50
-35
-36
-38
-46
-44
-44
-53
-45
-46
-48
-51
-49
-68
-79
-74
-69
-64
-65
-58
-61
-63
-74
-74
-68
-65
-60
-60
-60
-63
-65
-71
-73
-80
-78
-55
-73
-79
-69
-85
-89
-93
-68
-84
-69
-84
-80
-109
-98
-101
-96
-88
-95
-100
-93
-103
-103
-109
-111
-109
-91
-96
-118
-108
-115
-119
-98
-114
-101
-94
-106
-106
-125
-113
-119
-105
-108
-125
-124
-121
-110
-114
-119
-128
-115
-105
-121
-114
-116
-119
-138
-113
-110
-101
-109
-121
-109
-113
-119
-121
-115
-108
-103
-113
-106
-116
-115
-111
-116
-110
-101
-109
-98
-123
-110
-119
-103
-104
-110
-104
-106
-111
-113
-115
-123
-98
-95
-99
-99
-104
-100
-111
-98
-114
-103
-91
-106
-104
-100
-98
-88
-81
-76
-78
-66
-65
-66
-70
-83
-71
-63
-59
-46
-60
-54
-50
-51
-48
-49
-43
-46
-44
-61
-69
-81
-71
-54
-63
-53
-51
-48
-43
-43
-25
-15
-11
8
80
165
295
465
639
808
906
911
826
634
424
220
70
-15
-51
-65
-49
-43
-53
-51
-76
-101
-90
-83
-84
-100
-109
-114
-109
-114
-129
-130
-111
-111
-111
-135
-129
-120
-136
-146
-134
-113
-121
-124
-131
-135
-141
-133
-138
-130
-119
-128
-133
-133
-135
-130
-130
-131
-115
-120
-129
-115
-124
-125
-131
-123
-114
-109
-100
-120
-136
-135
-131
-126
-120
-125
-123
-123
-126
-133
-131
-130
-138
-113
-116
-115
-116
-118
-118
-115
-89
-88
-64
-60
-64
-41
-38
-25
-26
-15
-9
-10
-13
-19
-24
-16
-16
-23
-4
-26
-29
-36
-40
-50
-45
-26
-28
-29
-44
-45
-50
-45
-53
-43
-44
-36
-35
-45
-58
-38
-53
-59
-48
-41
-34
-46
-55
-65
-69
-54
-55
-51
-56
-61
-69
-79
-71
-69
-78
-76
-80
-73
-80
-85
-90
-86
-88
-83
-76
-86
-83
-63
-91
-95
-85
-91
-83
-81
-89
-96
-108
-105
-96
-100
-96
-98
-95
-90
-96
-105
-110
-108
-93
-95
-106
-94
-101
-115
-121
-105
-95
-86
-99
-94
-95
-98
-98
-100
-98
-89
-86
-100
-105
-96
-93
-91
-99
-89
-95
-91
-106
-109
-104
-91
-100
-99
-88
-83
-100
-99
-96
-95
-90
-88
-91
-91
-83
-95
-91
-96
-80
-76
-83
-54
-73
-79
-76
-71
-83
-69
-64
-46
-53
-53
-53
-58
-51
-36
-35
-26
-39
-35
-51
-58
-71
-85
-75
-65
-68
-51
-50
-53
-60
-55
-51
-34
-35
-26
-21
-23
-6
63
116
233
353
508
663
789
849
841
720
580
423
276
126
28
-34
-50
-56
-68
-69
-70
-80
-86
-99
-105
-119
-115
-125
-113
-119
-130
-120
-148
-139
-146
-120
-141
-124
-140
-123
-146
-146
-145
-153
-144
-125
-136
-128
-128
-136
-151
-134
-123
-123
-131
-118
-138
-131
-134
-136
-146
-130
-130
-114
-129
-133
-146
-129
-134
-116
-118
-128
-123
-125
-136
-133
-135
-125
-125
-123
-118
-124
-124
-115
-104
-113
-110
-80
-70
-61
-55
-58
-40
-46
-30
-20
-16
-15
-16
-41
-24
-46
-36
-28
-25
-25
-34
-49
-53
-51
-50
-55
-55
-49
-44
-56
-65
-69
-66
-58
-50
-64
-53
-59
-69
-86
-65
-73
-66
-81
-81
-79
-75
-85
-85
-93
-86
-81
-88
-94
-90
-93
-110
-94
-103
-96
-99
-105
-101
-110
-124
-105
-109
-114
-108
-109
-116
-120
-121
-110
-121
-116
-111
-118
-123
-131
-141
-129
-139
-124
-124
-124
-129
-121
-123
-120
-130
-108
-123
-118
-121
-128
-120
-118
-119
-126
-125
-115
-124
-126
-118
-134
-124
-115
-145
-115
-135
-138
-128
-135
-141
-133
-130
-116
-140
-130
-125
-130
-135
-140
-119
-116
-123
-125
-119
-125
-146
-136
-130
-116
-115
-125
-135
-123
-131
-138
-126
-110
-121
-114
-110
-111
-96
-109
-108
-111
-90
-88
-95
-69
-75
-98
-88
-79
-80
-71
-75
-89
-88
-95
-80
-96
-79
-94
-98
-110
-104
-103
-93
-84
-89
-83
-64
-71
-59
-75
-55
-55
-30
-5
44
120
238
390
554
721
840
825
728
535
329
143
4
-91
-131
-130
-121
-114
-103
-134
-129
-150
-151
-156
-171
-148
-136
-159
-159
-181
-179
-168
-175
-164
-156
-160
-174
-174
-176
-180
-173
-151
-164
-158
-171
-180
-189
-169
-171
-169
-153
-163
-151
-166
-179
-173
-175
-154
-158
-164
-160
-164
-170
-175
-171
-154
-163
-155
-158
-158
-176
-173
-166
-151
-170
-160
-160
-169
-161
-163
-159
-163
-161
-146
-136
-130
-118
-129
-121
-109
-96
-75
-71
-68
-73
-59
-60
-71
-63
-59
-46
-56
-48
-60
-79
-71
-89
-83
-78
-70
-86
-83
-85
-91
-93
-100
-90
-86
-75
-79
-88
-93
-89
-101
-84
-90
-94
-95
-105
-110
-100
-98
-116
-90
-94
-106
-118
-114
-108
-118
-106
-111
-106
-114
-101
-111
-119
-144
-128
-118
-120
-118
-129
-131
-119
-134
-141
-130
-118
-133
-130
-126
-124
-146
-141
-136
-126
-128
-129
-139
-135
-139
-141
-153
-153
-133
-143
-120
-143
-148
-131
-140
-143
-125
-123
-121
-125
-136
-139
-136
-133
-125
-128
-136
-140
-139
-149
-146
-141
-140
-136
-121
-125
-135
-156
-133
-140
-130
-131
-129
-120
-140
-130
-140
-124
-135
-126
-128
-115
-115
-140
-123
-135
-113
-114
-106
-130
-125
-129
-113
-119
-110
-103
-103
-99
-85
-90
-98
-93
-86
-90
-68
-71
-70
-83
-80
-88
-79
-65
-64
-60
-60
-63
-71
-76
-80
-93
-88
-79
-85
-84
-90
-99
-89
-75
-69
-56
-50
-36
-50
-16
8
51
164
304
468
663
825
903
874
755
561
353
189
56
-23
-73
-81
-79
-80
-78
-80
-81
-90
-111
-126
-125
-123
-128
-113
-123
-133
-125
-129
-136
-150
-144
-130
-140
-133
-144
-141
-159
-151
-156
-156
-144
-136
-151
-166
-154
-144
-160
-151
-143
-139
-143
-135
-154
-149
-151
-154
-140
-131
-139
-141
-143
-148
-151
-148
-149
-133
-125
-133
-133
-144
-154
-143
-140
-131
-135
-130
-134
-145
-154
-141
-126
-124
-129
-113
-119
-125
-126
-111
-109
-83
-83
-45
-50
-38
-30
-50
-39
-20
-19
-30
-20
-31
-40
-45
-53
-28
-40
-51
-33
-43
-49
-50
-45
-49
-58
-30
-34
-43
-39
-60
-60
-61
-41
-49
-36
-38
-45
-50
-64
-65
-51
-58
-65
-45
-38
-60
-71
-85
-60
-76
-71
-68
-75
-73
-78
-81
-84
-91
-88
-78
-83
-84
-91
-80
-99
-95
-98
-90
-86
-90
-98
-116
-93
-99
-95
-105
-99
-91
-95
-103
-119
-94
-93
-110
-91
-93
-105
-103
-109
-114
-114
-110
-111
-106
-103
-108
-108
-109
-111
-108
-106
-86
-95
-99
-110
-115
-110
-105
-105
-85
-106
-100
-101
-98
-100
-105
-96
-91
-98
-100
-99
-110
-106
-108
-106
-95
-94
-91
-110
-96
-110
-100
-96
-84
-88
-85
-68
-86
-81
-95
-60
-60
-56
-46
-53
-64
-55
-63
-56
-46
-46
-43
-49
-49
-45
-54
-49
-58
-58
-56
-59
-65
-71
-73
-73
-59
-53
-51
-38
-38
-41
-33
-41
-15
18
59
139
234
338
478
621
743
815
854
788
651
484
300
144
34
-10
-48
-59
-51
-51
-85
-85
-90
-99
-99
-100
-110
-111
-115
-118
-121
-119
-125
-131
-120
-130
-138
-136
-149
-131
-143
-145
-136
-123
-131
-138
-148
-139
-131
-126
-113
-120
-121
-143
-136
-145
-125
-128
-129
-110
-113
-136
-128
-139
-139
-134
-125
-115
-115
-126
-125
-136
-138
-120
-120
-128
-115
-116
-120
-130
-133
-130
-124
-124
-111
-110
-129
-115
-103
-94
-85
-70
-60
-35
-35
-33
-38
-30
-31
-10
-11
-9
-18
-18
-33
-36
-33
-43
-33
-31
-28
-49
-48
-49
-61
-56
-43
-35
-40
-39
-54
-51
-53
-55
-65
-45
-58
-43
-51
-51
-69
-65
-60
-69
-60
-61
-63
-79
-71
-86
-91
-71
-70
-86
-80
-80
-89
-109
-96
-89
-86
-96
-80
-100
-99
-96
-100
-111
-93
-95
-100
-101
-110
-116
-113
-109
-96
-110
-108
-119
-111
-124
-113
-108
-110
-99
-101
-110
-101
-115
-123
-119
-116
-104
-123
-104
-109
-123
-111
-133
-124
-120
-96
-116
-108
-109
-118
-110
-126
-121
-116
-119
-120
-110
-125
-131
-129
-113
-113
-109
-113
-108
-108
-120
-118
-115
-116
-103
-101
-123
-116
-115
-116
-116
-106
-110
-94
-104
-86
-91
-106
-86
-74
-80
-93
-56
-69
-78
-74
-66
-84
-66
-69
-63
-73
-80
-89
-103
-103
-86
-80
-70
-85
-79
-64
-60
-78
-63
-59
-26
-26
-6
10
35
136
249
373
548
684
811
873
853
738
561
364
215
75
-3
-68
-83
-91
-111
-108
-105
-111
-123
-126
-125
-134
-149
-159
-153
-144
-144
-144
-155
-170
-160
-156
-159
-159
-156
-153
-164
-156
-164
-171
-165
-151
-155
-148
-166
-156
-159
-155
-169
-165
-151
-155
-149
-154
-166
-150
-149
-155
-144
-149
-146
-139
-154
-158
-173
-165
-168
-140
-150
-155
-160
-151
-163
-163
-149
-154
-153
-155
-160
-146
-148
-138
-129
-111
-105
-85
-89
-71
-73
-76
-64
-40
-51
-40
-33
-49
-63
-53
-53
-59
-60
-60
-64
-73
-60
-74
-69
-76
-73
-75
-79
-83
-76
-88
-80
-85
-79
-83
-73
-70
-85
-93
-90
-88
-85
-74
-78
-84
-85
-96
-83
-91
-105
-93
-101
-94
-104
-105
-126
-108
-103
-105
-110
-95
-111
-114
-113
-131
-120
-114
-111
-123
-125
-120
-124
-129
-135
-116
-109
-119
-118
-128
-128
-136
-131
-125
-118
-123
-123
-120
-139
-143
-131
-120
-125
-123
-108
-130
-131
-129
-141
-148
-140
-123
-125
-114
-135
-125
-136
-121
-125
-123
-106
-118
-119
-120
-140
-141
-125
-123
-131
-125
-126
-121
-126
-119
-129
-125
-123
-104
-128
-120
-123
-126
-143
-123
-115
-113
-110
-105
-119
-133
-125
-116
-114
-105
-86
-78
-94
-89
-96
-88
-99
-76
-73
-75
-68
-58
-86
-75
-74
-64
-54
-64
-69
-81
-84
-93
-83
-83
-85
-88
-83
-91
-88
-78
-86
-75
-69
-51
-56
-61
-56
-48
-54
-31
39
109
210
358
540
700
810
820
729
521
318
141
11
-100
-100
-108
-86
-78
-76
-98
-98
-110
-123
-129
-129
-120
-123
-131
-125
-133
-136
-153
-146
-138
-138
-136
-134
-150
-159
-149
-148
-148
-125
-156
-145
-141
-150
-150
-145
-145
-136
-120
-131
-133
-146
-151
-155
-144
-135
-133
-138
-130
-143
-134
-139
-131
-139
-145
-136
-126
-143
-133
-139
-129
-131
-120
-121
-130
-145
-138
-141
-155
-140
-126
-134
-133
-139
-125
-138
-120
-123
-100
-104
-88
-90
-65
-59
-56
-33
-29
-19
-19
-15
-23
-20
-25
-34
-31
-26
-38
-38
-19
-35
-39
-44
-56
-51
-40
-48
-59
-43
-70
-51
-61
-59
-48
-44
-49
-54
-63
-65
-73
-58
-51
-63
-56
-50
-65
-68
-73
-54
-74
-63
-64
-68
-65
-89
-81
-83
-91
-83
-71
-75
-89
-89
-89
-100
-86
-78
-80
-85
-98
-96
-100
-103
-98
-94
-86
-83
-83
-94
-99
-108
-114
-105
-93
-80
-101
-103
-115
-111
-114
-94
-104
-101
-114
-98
-110
-101
-111
-108
-94
-105
-86
-111
-101
-119
-111
-103
-106
-94
-94
-85
-109
-100
-118
-106
-109
-99
-93
-96
-96
-105
-106
-106
-84
-104
-88
-99
-84
-99
-95
-111
-93
-84
-80
-76
-80
-73
-71
-81
-84
-75
-64
-63
-50
-51
-59
-63
-55
-46
-55
-43
-51
-46
-56
-60
-76
-81
-73
-75
-63
-69
-70
-79
-73
-73
-69
-63
-50
-38
-43
-40
-34
21
108
229
405
598
744
834
790
653
474
259
108
-5
-59
-79
-86
-95
-90
-75
-75
-84
-94
-98
-113
-120
-123
-115
-116
-116
-125
-121
-125
-133
-148
-144
-138
-133
-116
-125
-130
-144
-140
-150
-158
-151
-125
-134
-131
-138
-150
-146
-143
-141
-149
-123
-134
-134
-139
-140
-140
-135
-123
-125
-131
-123
-129
-146
-141
-134
-135
-129
-128
-129
-126
-148
-150
-130
-139
-135
-129
-124
-125
-130
-131
-125
-123
-118
-115
-91
-88
-83
-71
-63
-66
-55
-31
-13
-20
-30
-35
-35
-19
-35
-31
-30
-30
-48
-64
-60
-61
-66
-61
-60
-53
-65
-73
-74
-71
-79
-60
-64
-61
-64
-68
-85
-71
-74
-86
-76
-79
-66
-80
-89
-83
-90
-88
-90
-88
-86
-88
-101
-86
-91
-105
-86
-93
-99
-103
-104
-114
-104
-101
-116
-116
-111
-93
-113
-123
-130
-116
-118
-108
-103
-100
-116
-114
-115
-113
-129
-114
-115
-114
-130
-131
-135
-130
-120
-133
-123
-128
-114
-126
-129
-139
-135
-121
-116
-124
-126
-126
-133
-123
-134
-105
-119
-125
-119
-115
-125
-141
-123
-136
-124
-125
-111
-130
-124
-121
-131
-116
-130
-131
-130
-113
-113
-121
-126
-108
-106
-119
-109
-91
-93
-105
-108
-90
-91
-84
-89
-74
-75
-86
-81
-78
-80
-74
-74
-76
-68
-81
-85
-105
-109
-98
-98
-90
-105
-95
-103
-105
-90
-84
-70
-71
-54
-53
-29
14
94
265
431
630
788
845
776
596
369
195
36
-73
-95
-105
-89
-109
-111
-103
-116
-118
-130
-129
-136
-148
-161
-144
-155
-153
-151
-150
-156
-163
-169
-163
-171
-169
-166
-149
-160
-166
-156
-164
-175
-175
-153
-160
-161
-150
-159
-161
-179
-170
-176
-160
-140
-145
-148
-159
-168
-148
-170
-154
-139
-141
-156
-158
-155
-165
-148
-169
-149
-140
-145
-158
-156
-160
-169
-170
-160
-145
-149
-150
-159
-165
-143
-130
-128
-110
-105
-105
-90
-75
-73
-63
-59
-49
-33
-35
-56
-46
-65
-66
-65
-50
-63
-71
-68
-80
-78
-85
-83
-79
-84
-73
-71
-80
-95
-90
-80
-91
-89
-85
-76
-83
-84
-90
-86
-84
-71
-68
-71
-85
-98
-103
-100
-98
-90
-76
-85
-99
-115
-91
-109
-123
-95
-89
-116
-100
-114
-105
-113
-114
-116
-103
-109
-111
-120
-113
-125
-144
-111
-116
-111
-103
-110
-111
-111
-125
-125
-120
-111
-115
-121
-120
-126
-141
-123
-118
-124
-116
-111
-119
-118
-119
-144
-130
-123
-121
-110
-128
-133
-116
-118
-134
-130
-110
-110
-115
-121
-125
-109
-124
-121
-105
-110
-116
-124
-101
-118
-125
-106
-111
-114
-105
-106
-110
-100
-104
-116
-104
-101
-96
-95
-100
-104
-89
-75
-84
-75
-89
-69
-81
-79
-86
-65
-64
-69
-60
-54
-50
-60
-58
-71
-66
-63
-60
-56
-68
-65
-84
-63
-76
-66
-68
-51
-56
-50
-46
-55
-33
-20
13
100
195
328
485
661
793
865
831
709
525
344
184
66
-19
-50
-65
-51
-41
-53
-78
-90
-101
-95
-109
-101
-105
-98
-116
-128
-124
-125
-135
-131
-128
-128
-125
-146
-144
-135
-139
-131
-129
-136
-126
-148
-149
-154
-138
-139
-133
-125
-136
-126
-140
-138
-130
-133
-130
-111
-120
-128
-149
-138
-119
-131
-133
-131
-115
-124
-124
-129
-130
-119
-131
-120
-115
-111
-124
-135
-141
-138
-111
-116
-110
-110
-103
-109
-106
-108
-91
-76
-61
-44
-33
-33
-36
-24
-10
-4
-3
0
0
-14
-23
-36
-30
-18
-24
-28
-16
-31
-46
-35
-39
-44
-36
-35
-31
-28
-36
-46
-53
-46
-40
-28
-29
-39
-40
-34
-60
-44
-50
-38
-53
-39
-56
-63
-50
-69
-59
-58
-61
-44
-54
-56
-74
-76
-73
-65
-80
-65
-73
-73
-76
-88
-79
-69
-80
-81
-71
-76
-79
-84
-86
-90
-79
-78
-71
-78
-79
-86
-101
-96
-91
-95
-78
-90
-90
-89
-94
-115
-104
-90
-104
-88
-81
-89
-91
-99
-100
-95
-79
-84
-76
-96
-105
-96
-95
-85
-91
-88
-95
-83
-105
-91
-95
-94
-79
-80
-71
-83
-93
-100
-94
-88
-98
-73
-75
-83
-80
-81
-83
-66
-71
-66
-50
-60
-68
-56
-54
-63
-53
-41
-51
-33
-53
-41
-55
-39
-58
-40
-24
-36
-39
-49
-58
-71
-63
-63
-53
-56
-38
-40
-45
-50
-44
-33
-23
-9
-13
21
49
129
230
374
530
709
850
905
869
753
566
405
238
108
33
-20
-45
-50
-61
-88
-84
-83
-75
-98
-100
-101
-103
-113
-126
-110
-119
-119
-128
-115
-119
-118
-140
-131
-146
-138
-131
-135
-139
-133
-131
-153
-133
-139
-138
-133
-128
-131
-130
-133
-144
-125
-140
-128
-139
-124
-153
-136
-135
-124
-108
-123
-125
-130
-131
-134
-128
-140
-131
-125
-118
-118
-130
-138
-140
-130
-138
-126
-134
-130
-128
-135
-125
-109
-103
-93
-76
-74
-59
-63
-53
-44
-40
-35
-30
-24
-26
-29
-29
-33
-38
-24
-30
-34
-43
-44
-54
-61
-50
-66
-46
-58
-60
-63
-65
-73
-69
-63
-53
-60
-64
-70
-80
-63
-69
-80
-74
-69
-74
-75
-69
-90
-90
-85
-79
-73
-90
-91
-105
-106
-99
-100
-109
-98
-95
-103
-100
-106
-118
-106
-111
-114
-108
-101
-119
-119
-121
-119
-123
-96
-108
-104
-119
-126
-125
-114
-120
-124
-120
-105
-113
-118
-118
-121
-133
-119
-111
-119
-118
-109
-128
-139
-133
-119
-116
-109
-115
-109
-120
-126
-135
-115
-123
-114
-121
-129
-113
-111
-125
-120
-129
-125
-113
-116
-118
-128
-123
-118
-134
-124
-104
-114
-110
-118
-108
-138
-116
-119
-113
-120
-113
-119
-105
-114
-119
-100
-73
-81
-84
-78
-83
-83
-79
-83
-76
-66
-71
-75
-74
-93
-89
-89
-78
-91
-86
-90
-105
-100
-99
-94
-85
-75
-53
-56
-71
-53
-60
-56
-40
-24
26
73
155
266
404
574
739
860
888
814
654
440
250
86
-21
-73
-91
-91
-104
-104
-110
-124
-131
-134
-130
-136
-144
-149
-151
-150
-153
-154
-149
-150
-166
-153
-158
-164
-170
-156
-171
-151
-159
-156
-168
-156
-175
-174
-165
-154
-156
-150
-160
-156
-165
-168
-154
-158
-151
-143
-151
-160
-174
-155
-170
-155
-153
-143
-144
-156
-153
-166
-158
-170
-164
-154
-151
-153
-165
-170
-165
-169
-163
-149
-146
-150
-135
-144
-118
-106
-109
-105
-75
-73
-65
-63
-64
-68
-60
-54
-53
-45
-41
-46
-51
-53
-56
-45
-64
-56
-50
-58
-61
-71
-64
-80
-63
-68
-63
-64
-73
-75
-76
-64
-71
-58
-70
-55
-64
-71
-75
-88
-81
-78
-83
-81
-79
-93
-98
-88
-95
-100
-88
-80
-109
-105
-103
-115
-105
-106
-100
-109
-111
-99
-116
-109
-119
-110
-110
-105
-113
-111
-111
-123
-119
-105
-123
-114
-118
-115
-126
-119
-130
-118
-115
-106
-104
-111
-119
-120
-129
-130
-119
-111
-126
-115
-123
-120
-128
-115
-115
-114
-110
-105
-109
-116
-124
-110
-109
-114
-101
-106
-101
-111
-109
-119
-110
-111
-99
-111
-108
-119
-111
-115
-109
-118
-108
-106
-109
-110
-119
-121
-105
-104
-93
-98
-100
-88
-95
-100
-101
-80
-78
-69
-73
-74
-70
-65
-71
-68
-51
-63
-41
-49
-51
-61
-71
-60
-69
-68
-64
-65
-70
-78
-79
-84
-73
-78
-55
-63
-43
-49
-54
-53
-45
-35
-25
8
41
131
260
419
600
760
864
845
706
480
241
63
-51
-101
-113
-86
-81
-79
-100
-100
-109
-111
-111
-113
-119
-123
-125
-140
-136
-139
-148
-131
-129
-125
-133
-136
-150
-141
-140
-135
-126
-138
-124
-135
-131
-159
-135
-151
-139
-128
-138
-130
-143
-139
-140
-135
-129
-134
-126
-130
-131
-121
-125
-125
-125
-116
-131
-123
-130
-126
-134
-124
-129
-123
-121
-120
-125
-135
-143
-123
-138
-120
-120
-103
-111
-113
-111
-111
-101
-73
-66
-46
-43
-54
-50
-40
-45
-20
-10
-20
-4
-15
-25
-29
-18
-40
-18
-28
-23
-48
-33
-51
-45
-50
-35
-43
-43
-43
-44
-60
-55
-58
-53
-45
-45
-45
-51
-59
-60
-78
-51
-54
-55
-48
-45
-56
-70
-73
-68
-73
-74
-60
-68
-78
-76
-89
-84
-88
-60
-76
-85
-83
-78
-96
-78
-91
-104
-74
-83
-86
-95
-103
-109
-101
-99
-76
-90
