Var1
68
66
66
63
63
63
62
62
62
63
63
66
68
71
74
78
83
89
95
101
108
117
125
132
137
150
165
179
197
221
248
273
290
296
293
290
288
282
275
261
243
222
203
183
183
195
216
233
219
131
-26
-216
-390
-495
-522
-494
-440
-384
-329
-290
-267
-260
-255
-246
-230
-206
-174
-137
-101
-68
-48
-29
-14
-8
-8
0
0
3
6
15
23
29
35
39
45
51
59
65
74
83
92
98
108
116
125
129
135
138
143
144
149
150
153
153
158
159
162
164
165
165
165
165
164
162
158
156
150
149
146
143
140
141
141
138
134
132
125
117
105
99
95
90
89
84
80
72
65
53
45
38
33
27
23
20
18
12
11
8
5
0
2
0
0
-6
-6
0
-6
0
0
-5
0
0
-6
-8
-12
-12
-15
-12
-11
-6
-5
3
3
0
-9
-12
-14
-15
-12
0
9
20
29
33
36
38
41
41
41
38
39
36
35
33
32
29
30
30
29
23
23
21
18
18
20
21
21
23
21
17
9
5
2
6
11
21
29
39
51
72
93
120
146
168
182
201
218
233
245
254
260
258
251
230
198
162
132
107
90
71
48
26
15
5
-5
-12
-12
-12
12
74
174
296
423
558
692
777
786
723
603
455
308
177
68
-11
-51
-68
-81
-89
-87
-80
-78
-80
-80
-77
-78
-78
-80
-81
-81
-86
-87
-89
-86
-86
-83
-80
-75
-75
-69
-66
-60
-56
-48
-41
-32
-26
-18
-9
2
9
20
27
35
38
41
42
42
42
35
29
24
26
30
41
51
62
68
74
77
78
75
78
75
75
69
66
60
50
39
30
29
30
35
39
47
56
63
63
63
59
54
47
41
33
27
18
14
5
-8
-21
-30
-36
-39
-38
-42
-62
-101
-150
-203
-246
-282
-312
-345
-378
-420
-465
-509
-539
-557
-561
-558
-548
-528
-500
-459
-396
-315
-225
-128
-32
62
140
203
245
270
282
287
287
282
276
264
249
234
219
213
218
245
281
321
360
395
420
437
444
446
444
443
441
438
435
431
425
417
408
399
395
386
386
384
383
378
375
369
362
356
351
345
336
327
315
305
291
279
266
252
237
225
210
200
189
182
168
161
149
137
123
114
105
96
87
81
72
63
54
47
41
36
33
26
21
14
11
9
9
9
6
2
2
0
-6
-12
-12
-15
-15
-15
-11
-8
-6
2
2
5
3
6
5
9
11
12
11
12
11
11
8
8
8
6
3
3
0
-6
-11
-11
-9
2
15
32
44
51
56
56
57
54
51
41
29
17
2
-18
-23
-30
-36
-42
-45
-48
-48
-50
-47
-44
-42
-39
-39
-39
-38
-15
47
144
258
383
504
633
720
734
677
573
434
294
168
65
-14
-51
-72
-89
-107
-117
-119
-123
-131
-135
-132
-132
-129
-128
-120
-114
-110
-107
-99
-95
-84
-77
-66
-59
-47
-39
-35
-30
-23
-15
-9
2
8
17
24
35
42
50
53
57
59
62
65
68
69
74
72
72
71
72
74
72
71
71
69
68
69
66
65
65
65
62
65
65
65
65
66
63
60
53
45
35
23
11
6
3
0
-8
-8
-6
2
8
6
3
-8
-18
-30
-36
-35
-26
-27
-50
-98
-168
-266
-372
-470
-548
-603
-627
-644
-654
-657
-638
-599
-543
-477
-404
-326
-252
-179
-107
-29
53
126
188
236
266
284
290
291
285
276
264
252
239
225
219
227
251
285
324
357
383
399
410
413
416
416
419
417
419
416
413
410
411
410
410
405
405
402
398
395
390
392
384
383
381
378
374
372
369
366
362
357
348
342
333
323
309
299
287
272
255
240
225
210
192
177
164
149
137
120
107
95
83
69
59
48
41
30
24
18
12
6
5
2
-5
-8
-6
-8
-9
-9
-9
-9
-11
-9
-9
-9
-11
-9
-11
-9
-8
-8
-9
-8
-8
-8
-9
-8
-9
-9
-12
-12
-12
-14
-14
-15
-15
-18
-18
-21
-21
-23
-24
-27
-26
-27
-26
-29
-26
-27
-27
-30
-27
-29
-30
-30
-27
-27
-27
-27
-27
-26
-24
-23
-23
-21
-20
-18
-20
-17
-15
-12
-14
-9
-8
-8
-8
-5
0
0
0
3
5
6
9
9
11
12
14
15
15
17
20
18
23
23
24
23
26
27
29
26
30
33
33
33
36
38
38
41
39
41
42
45
47
48
50
53
59
74
89
104
111
116
113
123
171
261
371
486
612
743
843
881
839
714
537
360
210
96
24
-20
-42
-65
-80
-86
-86
-89
-92
-92
-87
-86
-83
-83
-78
-78
-77
-77
-75
-72
-72
-71
-68
-62
-60
-56
-51
-44
-39
-32
-26
-17
-11
3
11
17
23
29
36
42
47
53
59
63
69
71
74
75
78
77
78
77
77
74
75
77
77
74
75
72
69
66
68
65
65
63
62
60
57
59
57
59
59
62
63
66
68
71
71
75
78
81
84
93
101
110
117
129
141
153
168
185
200
209
216
225
239
254
261
255
246
237
228
221
213
201
188
179
180
186
195
188
152
47
-131
-326
-491
-587
-608
-572
-513
-452
-401
-363
-339
-315
-291
-260
-236
-209
-177
-140
-102
-69
-44
-24
-6
14
27
35
39
45
51
57
65
72
80
87
95
101
108
116
123
129
138
146
153
156
167
171
176
179
183
186
189
191
192
192
192
194
192
191
189
188
186
185
180
177
174
173
170
168
162
161
158
155
149
146
141
135
131
125
119
113
108
101
95
89
83
75
69
62
56
48
44
38
33
26
23
18
15
11
9
6
5
2
2
0
-5
0
-6
-6
-6
-6
-6
-5
-6
-6
-6
0
0
2
2
5
5
6
5
6
9
9
11
9
11
12
14
15
17
15
17
15
18
17
18
18
20
21
23
20
23
23
23
23
24
24
24
27
27
29
30
32
30
33
32
35
35
36
36
39
36
41
41
45
54
75
96
119
140
158
174
192
212
225
237
245
251
249
243
222
194
159
131
105
83
56
33
12
0
-12
-12
-12
-12
-14
-14
-11
21
95
204
336
477
630
768
852
849
768
621
443
275
137
35
-27
-56
-72
-92
-105
-110
-111
-117
-120
-120
-117
-113
-114
-111
-110
-104
-104
-102
-99
-95
-95
-89
-87
-81
-77
-71
-63
-56
-51
-39
-32
-23
-14
0
9
18
29
35
41
45
51
56
60
65
66
68
71
71
71
68
69
69
69
68
69
69
69
69
69
69
69
72
71
72
71
72
71
71
68
66
63
62
59
53
47
44
39
33
26
21
15
9
3
-6
-14
-20
-23
-23
-9
18
48
77
89
72
32
-26
-74
-111
-143
-179
-222
-279
-339
-392
-435
-468
-494
-513
-528
-531
-525
-501
-456
-386
-297
-197
-101
-15
54
110
149
179
195
203
203
206
203
201
194
192
194
198
213
231
258
291
326
356
381
396
408
414
419
419
419
417
417
414
410
401
396
390
383
375
369
362
354
345
339
333
326
321
311
305
297
291
281
275
266
257
245
236
225
213
201
194
182
173
161
155
144
135
126
117
110
102
95
89
83
74
68
62
57
51
45
39
36
32
27
21
18
14
12
9
9
9
6
8
5
6
5
6
5
6
6
6
5
9
9
12
11
15
15
15
15
17
17
17
15
15
17
14
15
14
12
12
12
11
9
8
6
6
6
5
5
2
3
3
3
0
2
3
3
2
5
3
5
5
6
5
6
9
9
11
11
12
11
14
15
15
15
18
18
20
18
18
20
20
20
21
23
23
26
24
24
27
29
30
32
30
32
30
30
33
33
32
35
35
35
33
38
38
38
39
42
42
45
54
68
89
113
135
155
168
177
189
200
209
215
215
207
191
171
180
230
323
437
564
695
804
852
824
717
549
369
210
92
12
-36
-60
-80
-99
-108
-111
-111
-116
-116
-113
-110
-110
-108
-105
-102
-102
-99
-98
-95
-92
-90
-86
-83
-78
-77
-71
-66
-60
-54
-47
-39
-30
-26
-15
-8
3
11
20
29
35
38
44
50
53
57
57
57
59
60
60
60
60
60
59
63
60
60
57
59
59
59
56
51
54
53
50
51
47
42
44
39
36
38
36
33
33
32
33
30
33
33
36
39
50
59
75
92
119
147
173
192
203
198
171
129
69
0
-69
-132
-177
-200
-206
-191
-170
-146
-135
-132
-140
-146
-162
-165
-167
-164
-171
-189
-203
-192
-156
-93
-27
30
68
86
98
99
102
102
104
104
107
107
102
92
87
81
74
72
89
116
150
189
222
245
258
264
264
261
258
258
255
252
251
246
242
239
233
228
224
221
215
210
204
203
198
192
188
183
179
176
173
168
164
159
159
153
153
150
146
141
141
135
131
125
123
119
114
107
104
98
92
84
78
72
66
62
56
50
47
42
39
39
36
35
33
35
33
33
30
33
33
33
30
33
33
30
30
30
30
30
32
30
30
27
30
26
26
26
24
23
23
21
20
15
17
17
15
12
14
12
12
11
9
9
6
6
5
5
5
5
3
3
3
3
2
5
5
5
3
6
6
6
5
8
9
11
12
14
15
17
20
20
21
21
24
24
29
29
29
27
30
30
33
33
36
38
39
38
41
44
45
47
47
45
47
48
48
48
47
50
50
53
53
53
53
56
57
56
53
56
56
56
59
72
90
111
137
156
173
186
203
215
225
224
218
201
192
213
270
347
441
549
666
756
789
749
639
485
327
189
80
9
-36
-60
-78
-95
-105
-107
-107
-110
-111
-105
-102
-102
-102
-96
-95
-93
-95
-90
-87
-86
-86
-81
-78
-75
-71
-68
-62
-54
-47
-42
-33
-27
-18
-14
0
8
15
21
32
38
44
47
53
57
57
59
63
65
65
66
66
65
65
65
66
66
65
65
62
62
62
62
57
56
47
38
30
35
30
30
32
35
38
38
39
39
42
45
50
53
54
56
63
72
87
102
122
144
168
182
185
176
165
144
102
33
-56
-144
-224
-285
-330
-359
-383
-405
-435
-458
-455
-405
-327
-230
-135
-53
14
53
60
42
24
12
14
17
21
27
39
54
72
84
101
114
125
132
143
153
168
180
194
201
207
212
221
227
234
239
245
248
251
254
255
255
249
243
231
221
210
203
192
188
185
188
189
194
197
198
194
194
189
182
171
165
156
149
141
135
129
122
119
111
107
101
92
78
69
60
54
45
41
33
26
18
17
14
14
15
20
24
24
24
23
17
9
5
-6
-12
-14
-14
-15
-15
-18
-20
-21
-18
-15
-15
-18
-18
-20
-23
-27
-29
-33
-36
-38
-36
-32
-27
-21
-20
-20
-18
-15
-17
-15
-15
-14
-12
0
5
11
11
17
17
15
15
20
21
18
17
15
15
18
26
30
35
38
38
35
36
36
38
38
42
44
45
42
45
45
45
47
50
48
45
41
36
33
30
32
33
36
41
42
42
41
41
50
63
90
117
144
164
183
203
221
233
243
245
248
246
239
216
182
143
108
86
71
57
41
29
18
9
3
27
90
186
296
419
549
678
759
768
707
588
441
293
162
59
-17
-57
-84
-108
-123
-128
-126
-131
-138
-144
-138
-135
-132
-128
-116
-108
-104
-98
-89
-81
-77
-72
-69
-68
-68
-66
-63
-56
-51
-44
-39
-30
-24
-18
-14
-5
3
6
8
15
21
27
32
39
44
47
50
50
47
44
44
39
42
42
44
47
56
62
68
69
71
69
68
66
69
74
75
72
71
69
66
68
66
65
63
60
57
54
48
42
32
24
17
12
6
8
8
11
21
45
75
116
168
225
267
290
290
264
219
150
53
-75
-212
-357
-488
-597
-663
-678
-633
-536
-396
-255
-116
2
92
149
179
185
180
170
155
137
110
84
57
33
8
-14
-23
-15
9
45
89
137
176
209
228
240
245
252
255
254
255
255
257
255
255
251
248
242
237
227
221
216
215
213
213
210
207
200
197
189
185
179
177
173
168
164
161
155
150
146
140
134
126
119
108
101
90
84
75
75
72
69
63
59
54
50
45
44
41
35
32
32
33
36
45
50
59
63
68
69
72
71
68
59
54
50
45
41
42
41
42
39
42
41
39
36
35
33
30
30
27
27
24
23
18
15
11
8
0
0
-6
-8
-8
0
5
8
9
12
12
11
12
14
14
11
11
2
-12
-23
-29
-29
-21
-11
6
18
35
47
56
56
53
42
32
30
54
102
174
269
372
482
569
617
626
609
573
522
438
327
197
74
-35
-114
-182
-234
-266
-263
-228
-179
-126
-83
-54
-36
-24
-21
-24
-29
-32
-38
-39
-44
-44
-47
-48
-53
-57
-63
-68
-74
-74
-71
-54
-38
-21
-8
8
17
23
30
36
42
50
59
63
69
75
81
87
96
105
113
119
128
134
138
141
147
149
149
147
147
144
137
131
120
113
108
110
113
120
128
132
131
128
122
116
107
101
95
86
80
78
74
71
65
63
62
62
63
63
65
65
69
68
66
62
60
59
56
53
53
54
65
72
81
84
90
90
87
81
80
78
77
75
69
63
57
50
44
41
35
32
29
29
26
27
21
23
18
15
9
8
6
5
3
3
0
-9
-14
-23
-24
-20
-11
2
12
21
27
32
36
39
38
35
36
36
36
36
38
38
38
36
36
29
23
17
15
18
27
41
51
57
62
66
65
68
66
65
62
65
65
63
60
62
60
60
59
59
62
69
84
99
114
129
141
144
146
143
143
162
225
317
420
528
654
777
860
872
807
668
486
311
161
47
-27
-60
-80
-93
-98
-93
-89
-86
-86
-81
-78
-75
-75
-72
-72
-68
-68
-68
-69
-65
-66
-66
-65
-62
-57
-50
-42
-35
-26
-15
0
9
23
30
38
41
47
50
56
59
66
71
74
77
81
83
83
84
84
83
83
83
81
78
75
74
71
68
65
60
54
53
50
45
39
38
33
30
26
26
24
23
23
21
20
18
21
21
24
26
30
32
35
38
38
38
42
45
47
48
53
54
57
57
65
77
96
131
173
227
285
348
402
432
426
390
324
222
78
-96
-255
-356
-396
-392
-378
-363
-356
-344
-329
-314
-302
-291
-279
-269
-260
-251
-237
-227
-207
-191
-180
-176
-164
-143
-105
-59
-8
45
84
110
129
140
147
155
165
176
186
197
206
216
222
231
240
249
258
270
275
284
288
293
294
299
300
302
300
303
303
300
294
293
288
282
278
272
264
258
252
246
240
234
228
224
219
215
209
201
198
194
188
183
179
174
167
161
153
144
137
129
120
111
104
95
87
81
72
68
60
56
51
47
39
39
36
33
29
27
26
23
21
20
18
17
17
15
14
12
12
11
9
8
6
5
6
5
3
2
3
0
0
-6
-6
-6
-9
-9
-11
-12
-12
-11
-14
-14
-14
-12
-14
-12
-12
-11
-12
-11
-9
-8
-9
-6
0
2
0
5
6
8
6
11
12
14
17
18
18
20
23
24
27
27
30
30
35
35
36
36
39
39
39
38
41
44
45
45
45
45
47
47
47
48
48
51
53
53
53
56
54
56
56
59
57
59
57
57
59
71
84
99
114
125
128
126
131
159
228
323
431
543
672
791
867
863
780
627
441
269
134
38
-24
-56
-77
-95
-108
-113
-116
-120
-122
-116
-111
-108
-108
-105
-102
-101
-98
-96
-93
-90
-90
-89
-89
-83
-78
-75
-69
-60
-54
-48
-42
-33
-26
-17
-8
5
9
15
21
26
33
39
45
47
53
57
60
59
62
65
65
65
66
68
68
71
69
69
68
66
62
60
57
54
50
48
45
42
42
42
44
45
42
45
45
44
42
45
48
51
54
59
63
69
77
81
84
90
96
102
111
116
123
125
128
125
120
114
107
102
99
95
93
87
80
75
71
80
101
132
162
177
168
126
48
-62
-185
-288
-359
-375
-371
-351
-336
-318
-308
-303
-297
-290
-276
-261
-249
-246
-249
-252
-249
-245
-231
-215
-188
-152
-99
-38
32
86
126
153
167
173
179
186
194
201
210
219
227
237
243
251
260
269
273
281
285
291
294
299
303
308
308
312
312
314
312
312
311
309
303
302
299
294
291
287
282
276
275
269
266
261
257
251
246
242
234
227
221
210
200
186
179
168
156
146
137
125
114
107
95
87
77
71
60
56
47
42
35
33
27
24
18
17
14
11
8
6
6
3
2
0
0
-6
0
-6
-6
-8
-6
-6
-6
-9
-6
-6
2
11
23
36
53
62
63
62
63
65
65
63
57
45
32
17
-8
-20
-30
-39
-48
-56
-59
-59
-60
-54
-53
-50
-48
-47
-48
-50
-42
5
84
186
293
399
515
621
677
663
600
503
387
269
156
59
-8
-39
-56
-75
-90
-96
-96
-102
-105
-107
-102
-99
-101
-98
-93
-90
-87
-84
-80
-77
-74
-71
-68
-62
-57
-51
-48
-39
-36
-29
-26
-15
-8
3
8
17
23
27
33
39
44
45
48
48
48
47
47
47
47
47
47
45
47
47
47
45
47
47
47
45
47
48
47
47
47
47
45
47
42
42
38
35
30
29
23
20
14
11
5
2
-6
-6
-6
-6
-9
-8
-8
-11
-9
2
12
30
53
72
96
114
108
69
-6
-132
-300
-480
-627
-717
-740
-698
-611
-513
-422
-348
-293
-254
-225
-201
-186
-174
-156
-125
-83
-29
33
90
140
182
209
228
236
237
228
219
204
194
183
183
198
228
264
305
339
363
378
383
386
386
387
390
393
393
395
395
393
390
390
389
387
386
390
390
390
387
386
384
383
383
381
378
378
378
375
371
363
356
344
333
321
308
291
276
260
242
222
204
188
168
149
131
116
101
90
75
65
57
50
42
35
24
18
9
3
-6
-11
-14
-14
-15
-15
-18
-17
-20
-21
-24
-24
-24
-27
-24
-24
-24
-23
-20
-21
-21
-23
-23
-26
-24
-23
-20
-23
-21
-23
-24
-26
-24
-24
-24
-26
-24
-24
-24
-24
-24
-27
-27
-27
-29
-27
-27
-27
-30
-29
-27
-27
-29
-26
-24
-24
-27
-24
-23
-23
-21
-21
-18
-18
-14
-14
-14
-12
-11
-9
-6
-6
0
-5
2
3
5
5
9
11
12
12
18
21
23
26
29
30
33
36
36
39
39
44
45
47
48
51
51
54
56
57
57
60
60
62
60
65
63
62
60
62
60
60
62
65
69
83
98
111
126
132
134
129
132
162
233
327
437
552
677
786
846
830
738
582
401
239
111
24
-32
-59
-81
-101
-116
-120
-123
-126
-126
-120
-111
-108
-110
-108
-108
-110
-113
-108
-102
-96
-90
-86
-83
-83
-81
-80
-74
-66
-53
-41
-24
-14
0
6
14
18
21
21
27
35
42
44
47
48
45
45
44
42
41
44
42
45
51
59
71
83
90
93
87
81
71
63
56
54
51
50
47
48
48
45
42
39
38
41
47
51
57
65
77
83
89
95
99
101
108
116
125
129
132
126
120
114
119
134
164
203
245
276
296
302
291
275
252
231
219
224
236
249
251
239
197
92
-93
-320
-531
-669
-713
-671
-596
-518
-447
-392
-351
-324
-309
-305
-300
-285
-255
-218
-173
-132
-96
-65
-29
3
21
26
30
30
35
39
53
69
84
99
113
126
140
155
164
173
179
186
191
200
206
210
213
218
218
215
210
210
212
213
213
216
221
222
225
225
222
218
216
210
204
198
192
183
174
161
147
131
123
119
117
117
120
122
120
117
113
107
99
92
84
75
65
59
48
42
32
20
8
2
-5
0
3
9
14
15
11
6
0
-6
-8
-6
-9
-14
-18
-26
-29
-26
-21
-18
-14
-11
0
6
17
23
27
27
30
29
27
23
23
23
21
21
21
20
18
18
17
15
12
11
9
14
17
23
21
23
18
15
11
15
21
27
32
39
45
50
54
59
62
63
66
66
65
65
65
62
66
75
92
108
129
149
167
185
209
225
239
246
251
251
245
230
201
165
126
93
63
39
18
0
-15
-21
-24
-21
-20
-14
-12
-11
-11
2
27
92
189
309
434
569
701
789
801
740
621
461
300
158
48
-27
-59
-72
-84
-98
-101
-102
-105
-113
-111
-107
-101
-99
-95
-87
-83
-77
-74
-69
-66
-65
-65
-62
-57
-51
-48
-41
-38
-32
-29
-20
-17
-11
-6
6
17
27
35
42
47
51
57
62
63
63
66
65
66
65
66
65
66
68
74
74
80
81
81
78
80
81
83
84
90
92
90
86
81
78
78
81
81
80
77
74
69
66
63
62
57
56
53
48
42
39
33
26
18
18
27
45
74
95
92
59
6
-56
-98
-128
-153
-185
-222
-270
-321
-374
-414
-446
-471
-494
-507
-510
-497
-464
-404
-330
-245
-155
-63
30
111
174
212
228
233
234
231
225
216
210
207
213
219
227
234
249
266
287
305
323
336
344
351
359
368
377
387
396
402
405
408
408
410
408
407
398
392
383
371
356
347
335
324
317
318
318
318
318
312
305
297
287
275
263
251
242
230
221
209
200
186
177
165
153
137
126
117
110
102
96
87
75
63
47
33
23
18
15
17
21
30
36
42
45
44
38
35
29
23
12
11
9
6
2
-6
-12
-18
-21
-24
-23
-23
-21
-24
-24
-24
-24
-26
-26
-26
-26
-24
-20
-15
-14
-17
-20
-24
-30
-35
-35
-35
-32
-27
-21
-8
14
35
45
47
41
41
42
51
53
45
29
12
-5
-11
-11
-8
-12
-21
-33
-39
-42
-38
-30
-24
-23
-24
-24
-21
15
89
197
317
444
578
701
768
762
687
561
405
261
132
36
-26
-50
-63
-83
-96
-107
-108
-114
-120
-123
-122
-120
-117
-117
-113
-113
-116
-117
-111
-105
-96
-84
-68
-54
-44
-36
-26
-15
-11
0
2
6
6
9
11
15
20
24
27
33
36
41
42
48
50
51
50
51
51
48
47
42
41
39
42
41
41
41
41
36
36
39
41
38
39
36
36
36
39
41
41
38
35
33
29
27
24
21
18
15
6
-8
-23
-35
-45
-51
-56
-54
-48
-38
-23
-8
0
-24
-83
-188
-318
-440
-528
-572
-587
-591
-593
-584
-552
-498
-428
-359
-288
-215
-138
-63
20
86
147
197
231
246
257
258
252
243
233
219
201
186
174
167
171
192
224
258
290
315
330
339
342
347
351
360
368
377
380
383
384
383
381
383
381
377
374
369
363
357
353
345
341
335
333
324
324
318
315
309
306
299
293
282
273
263
249
234
222
206
191
173
153
131
108
89
71
59
54
54
56
62
66
69
68
68
63
59
51
47
41
35
27
26
21
17
17
12
9
6
6
2
2
2
2
0
3
2
3
0
0
0
0
-6
0
-6
-6
-9
-9
-11
-14
-14
-15
-18
-20
-20
-24
-23
-23
-21
-23
-23
-26
-29
-33
-32
-32
-32
-35
-32
-32
-35
-35
-36
-36
-36
-33
-33
-32
-30
-26
-27
-24
-21
-15
-12
-6
-5
2
0
3
5
6
5
8
8
9
11
15
18
21
24
26
29
33
36
36
39
41
44
44
45
45
47
47
50
51
50
48
50
51
50
50
50
50
50
53
51
53
53
56
54
56
56
53
50
50
53
62
72
84
90
87
81
107
179
284
401
524
653
774
851
851
774
627
447
281
146
47
-15
-47
-65
-83
-96
-101
-99
-104
-108
-108
-102
-102
-102
-99
-95
-93
-93
-90
-87
-86
-84
-81
-78
-72
-69
-63
-57
-48
-44
-36
-30
-20
-14
-6
5
14
23
29
36
44
50
56
63
68
72
75
80
83
86
87
90
90
93
95
96
96
101
99
101
99
99
99
98
96
95
93
92
93
90
89
89
89
89
92
93
96
96
101
102
107
108
114
119
123
126
132
135
140
146
152
159
168
186
203
215
216
213
206
203
200
197
185
174
167
159
153
161
176
197
215
227
224
174
57
-126
-317
-461
-531
-540
-513
-479
-440
-398
-360
-335
-318
-309
-290
-257
-213
-165
-116
-78
-53
-33
-14
5
14
21
29
35
42
50
57
65
72
80
87
98
107
116
125
137
146
155
162
173
180
186
192
198
203
203
206
207
207
207
210
207
206
203
201
198
197
192
189
183
182
177
174
168
168
164
159
155
153
147
141
137
131
125
119
113
104
96
89
83
74
66
59
53
45
39
35
30
23
21
15
11
6
3
2
-5
-6
-9
-11
-12
-11
-14
-12
-15
-15
-18
-17
-17
-15
-18
-15
-15
-14
-15
-12
-12
-11
-12
-9
-8
-8
-5
0
0
2
5
5
6
6
9
9
11
11
14
12
17
17
15
14
17
20
21
20
23
24
27
30
30
30
30
35
33
36
36
39
41
44
47
48
48
51
56
66
81
98
125
147
165
182
197
213
230
239
246
254
257
248
231
201
167
132
108
84
62
38
21
6
-8
-14
-14
-14
-14
8
66
159
273
399
531
665
758
773
714
605
459
317
185
77
-6
-51
-78
-96
-116
-123
-129
-129
-135
-140
-138
-135
-135
-132
-126
-123
-123
-122
-117
-114
-111
-108
-105
-102
-98
-96
-90
-87
-75
-65
-54
-45
-33
-23
-15
-5
8
12
18
24
30
36
42
50
53
59
60
63
62
65
63
63
60
66
65
66
63
66
68
68
66
66
66
66
68
65
65
65
65
63
62
57
54
47
42
38
32
24
21
15
9
3
0
-12
-20
-26
-36
-45
-48
-36
-12
23
35
18
-29
-78
-129
-165
-197
-222
-249
-279
-321
-362
-405
-444
-482
-512
-540
-557
-555
-534
-492
-432
-350
-261
-168
-75
18
96
167
216
246
258
266
266
263
254
248
240
228
215
209
216
234
264
297
333
362
384
398
407
411
414
414
413
411
408
405
402
393
383
371
362
354
347
341
342
342
344
347
347
347
345
345
339
335
327
318
303
291
278
266
252
243
234
222
209
201
192
182
171
162
155
146
147
165
204
260
299
273
161
-12
-186
-345
-470
-576
-657
-687
-674
-629
-579
-543
-500
-446
-384
-315
-254
-206
-170
-147
-131
-111
-81
-41
0
36
71
102
125
146
155
159
152
144
131
120
111
116
129
153
182
215
245
264
273
270
264
260
261
261
261
261
263
261
261
260
260
255
254
251
246
239
236
228
225
219
222
224
225
227
225
225
228
231
231
231
228
225
216
210
201
192
180
173
162
150
137
126
113
99
86
74
63
53
45
35
24
18
12
8
6
6
8
5
5
3
2
-6
-6
-6
-8
-9
0
0
-8
-11
-12
-14
-15
-15
-20
-24
-32
-39
-42
-26
12
71
149
245
347
444
509
540
542
519
482
426
338
219
92
-27
-125
-207
-273
-324
-348
-342
-309
-260
-206
-159
-125
-107
-96
-96
-99
-111
-116
-119
-120
-123
-120
-120
-122
-122
-122
-120
-116
-111
-108
-107
-102
-96
-92
-84
-78
-71
-66
-57
-50
-42
-35
-18
-5
11
21
33
42
51
63
74
83
93
102
108
114
117
119
119
119
114
113
108
108
105
102
99
99
98
96
93
93
90
86
83
77
74
71
69
66
65
62
63
60
63
63
66
66
69
71
71
69
71
71
68
66
65
63
59
59
56
54
53
54
51
50
45
45
42
38
33
27
17
8
2
-6
-9
-9
-11
-11
-12
-6
2
6
11
14
15
14
15
12
11
8
5
-6
-11
-15
-17
-20
-18
-18
-17
-15
-14
-12
-12
-12
-8
-8
-9
-9
-11
-11
-9
-6
0
3
3
5
3
6
6
11
15
18
21
23
20
23
23
24
27
32
36
39
42
42
45
44
42
39
39
38
36
32
32
29
33
36
45
48
50
44
44
53
93
173
288
414
549
699
834
917
921
846
698
522
354
215
110
45
6
-21
-47
-59
-63
-66
-74
-75
-75
-72
-74
-74
-71
-68
-63
-65
-65
-62
-59
-57
-53
-50
-45
-44
-39
-35
-29
-24
-15
-8
0
0
2
2
2
3
6
12
23
42
62
80
95
105
110
114
113
113
110
108
107
105
101
101
98
95
90
87
83
80
74
74
71
66
65
62
57
56
57
54
54
54
56
56
59
62
65
66
69
72
77
78
84
87
92
93
96
98
96
96
96
96
93
90
84
81
75
75
62
56
50
42
38
35
32
30
23
23
21
17
14
15
14
14
17
17
17
17
17
15
17
14
14
12
14
12
11
9
11
9
8
5
2
-5
-8
-11
-14
-17
-18
-15
-12
0
9
17
21
27
29
33
29
30
27
24
21
24
24
24
23
26
29
30
33
42
60
81
105
125
144
162
183
201
218
228
237
239
237
231
213
179
147
116
83
59
53
90
170
276
393
516
647
753
792
765
666
521
366
227
107
23
-35
-66
-92
-114
-126
-122
-120
-122
-122
-116
-111
-111
-110
-108
-107
-105
-104
-102
-95
-92
-86
-83
-77
-72
-68
-63
-54
-47
-39
-32
-20
-11
2
8
20
29
36
51
53
62
66
74
78
83
84
87
86
87
86
86
81
83
81
81
77
80
78
78
75
75
74
72
71
68
62
60
59
54
51
48
47
41
38
33
27
23
18
15
12
5
3
3
2
-5
0
0
-8
0
0
5
5
9
6
11
11
15
15
17
17
18
14
17
17
17
15
17
17
20
15
21
23
23
23
23
20
23
24
23
26
23
26
23
21
20
20
18
23
21
23
18
20
21
23
21
21
23
23
27
30
38
53
75
95
120
140
156
170
186
201
212
219
230
234
233
218
197
167
131
101
84
66
42
24
8
-6
-8
-6
-8
-5
-5
0
-6
-5
15
71
161
275
390
513
641
744
774
735
641
512
374
243
128
42
-11
-35
-51
-74
-84
-87
-87
-95
-96
-95
-92
-93
-90
-87
-81
-81
-78
-74
-68
-66
-62
-57
-53
-47
-41
-36
-27
-18
-12
0
9
21
29
42
48
60
68
80
86
93
96
105
108
111
114
116
116
117
119
116
116
114
113
111
111
110
108
107
105
105
104
101
101
99
95
92
90
86
81
75
72
65
59
56
48
44
39
35
27
24
21
18
14
12
11
11
9
11
11
11
11
12
15
15
15
18
20
21
24
24
24
23
26
24
24
23
23
20
21
20
20
18
20
18
18
18
20
20
18
18
18
20
20
21
21
27
41
62
83
107
126
143
153
170
185
197
206
216
221
221
209
189
156
122
95
75
56
35
15
0
-15
-21
-21
-21
-18
-18
-17
-20
-20
-8
38
119
228
344
461
585
702
761
746
672
560
422
288
165
65
3
-32
-48
-71
-86
-90
-92
-98
-102
-102
-99
-101
-99
-96
-93
-90
-89
-86
-81
-77
-74
-69
-65
-57
-53
-47
-39
-32
-24
-15
-6
9
18
32
42
53
60
72
78
87
92
99
102
105
108
110
110
110
111
108
108
107
107
104
104
102
101
98
98
95
92
87
86
84
81
77
74
71
65
60
56
51
44
39
30
24
18
14
8
5
-5
-9
-14
-12
-14
-14
-15
-11
-6
-6
-6
-6
-6
-6
0
0
-5
-5
-5
-6
-6
-5
2
2
3
5
5
2
3
3
2
0
2
0
-5
0
2
3
5
6
6
8
9
9
11
20
38
59
81
105
122
137
149
167
182
194
201
212
213
209
191
164
129
95
71
51
32
11
-9
-23
-30
-33
-30
-30
-30
-32
-33
-38
-35
-9
59
168
290
407
534
665
756
771
717
618
479
338
207
92
11
-32
-54
-72
-92
-102
-105
-110
-120
-123
-120
-117
-117
-114
-111
-108
-108
-107
-104
-101
-96
-93
-87
-84
-77
-75
-69
-63
-54
-48
-39
-27
-14
-5
12
21
29
35
42
50
57
63
71
75
80
83
81
84
84
87
90
90
90
90
89
90
89
89
86
89
86
83
80
78
78
74
69
66
62
57
53
47
42
36
32
24
21
14
11
5
2
-5
-6
-12
-11
-12
-15
-15
-14
-14
-14
-14
-12
-11
-9
-6
-6
0
0
3
3
3
3
5
3
5
5
6
5
8
8
8
6
9
11
11
11
11
11
12
14
12
14
15
18
24
39
59
83
105
128
144
158
170
186
200
209
216
225
227
218
198
167
134
107
87
68
48
29
14
0
-8
-9
-8
-8
-5
0
0
-6
9
47
131
245
375
507
647
767
830
813
732
602
443
294
162
63
0
-33
-51
-72
-90
-93
-95
-98
-105
-105
-101
-99
-101
-96
-93
-92
-90
-87
-84
-81
-77
-75
-71
-65
-59
-54
-45
-39
-30
-24
-14
0
11
18
30
41
53
60
71
80
86
90
95
101
102
107
105
107
107
107
107
107
105
105
101
102
101
99
96
96
95
93
89
89
86
81
77
74
69
65
62
56
50
45
41
35
30
26
23
17
15
12
11
6
8
8
6
6
8
9
11
11
12
14
15
17
17
18
18
20
20
21
18
18
17
20
20
20
17
20
20
20
20
20
20
20
21
20
20
20
21
21
21
23
32
47
69
90
113
131
146
159
173
185
198
207
216
221
222
210
188
156
123
98
77
59
38
18
2
-12
-18
-15
-14
-11
-11
-8
-8
-6
8
59
150
267
390
522
659
768
819
789
699
561
408
261
138
45
-14
-42
-59
-78
-90
-96
-96
-101
-104
-107
-102
-101
-102
-101
-96
-95
-95
-92
-87
-81
-75
-69
-62
-57
-56
-51
-47
-38
-30
-23
-17
0
9
21
30
44
56
65
74
83
90
93
98
99
101
102
105
104
105
104
104
102
104
102
102
99
101
101
101
98
98
95
90
87
84
81
77
74
66
60
56
51
45
41
35
32
23
20
14
11
6
6
6
6
5
6
6
5
3
3
2
3
8
9
9
11
11
12
12
12
14
12
14
15
17
17
18
17
17
14
14
12
11
9
9
11
12
15
12
14
12
14
14
18
29
47
66
87
108
126
138
156
173
188
197
207
215
216
213
200
171
138
107
80
59
39
20
-6
-17
-24
-27
-27
-26
-26
-24
-27
-24
-21
9
71
179
303
429
561
693
783
801
750
641
498
354
221
105
24
-24
-47
-68
-86
-96
-98
-105
-108
-111
-108
-108
-105
-104
-102
-98
-96
-96
-92
-86
-84
-81
-78
-71
-68
-62
-56
-47
-41
-30
-24
-14
-6
11
21
32
42
53
65
72
83
87
93
96
102
102
101
101
101
96
93
90
92
90
96
102
107
114
126
134
137
126
120
111
101
93
87
80
74
69
57
41
21
0
-23
-32
-33
-26
-17
3
12
17
14
11
3
-9
-15
-18
-20
-18
-17
-18
-18
-20
-20
-23
-24
-29
-32
-36
-36
-38
-39
-41
-39
-39
-36
-35
-30
-26
-23
-21
-18
-14
-11
-5
3
8
11
14
14
12
9
11
18
41
66
95
119
135
144
152
158
171
186
201
209
209
201
180
153
120
90
69
53
33
14
-12
-24
-30
-24
-17
-11
-11
-6
-6
-6
5
47
131
251
387
533
683
810
878
861
773
626
450
285
150
51
-8
-36
-51
-71
-83
-87
-84
-87
-95
-99
-96
-95
-92
-90
-86
-84
-84
-80
-74
-63
-54
-47
-39
-32
-24
-17
-11
2
6
11
14
23
29
33
39
45
54
63
74
86
101
108
116
116
117
117
122
126
129
128
125
119
119
119
123
129
149
170
192
203
207
203
203
206
213
210
200
182
156
129
96
69
45
30
21
18
17
20
21
18
11
8
3
2
-8
-12
-18
-26
-32
-35
-36
-36
-32
-35
-35
-33
-27
-21
-14
-9
-6
-12
-15
-21
-21
-20
-11
-5
3
3
3
0
-9
-14
-14
-14
-11
0
8
20
30
38
39
41
41
39
35
35
35
35
32
33
32
32
30
32
36
36
39
42
44
48
54
54
57
57
57
54
54
48
45
42
45
47
50
48
51
53
53
48
50
51
53
56
59
59
59
62
62
63
62
59
51
47
47
48
47
48
50
53
57
68
72
74
71
68
65
62
62
63
62
59
57
48
42
36
35
32
30
26
24
23
32
39
47
48
53
54
54
51
51
53
51
51
51
53
57
63
66
71
71
71
68
68
68
69
69
71
68
68
65
66
69
69
66
63
59
54
56
59
66
78
95
116
137
156
173
183
197
209
227
239
254
263
267
266
260
240
207
168
143
125
107
90
65
35
12
0
-12
-11
23
102
218
345
491
645
782
867
858
774
621
441
278
140
45
-9
-39
-60
-78
-95
-102
-108
-116
-123
-122
-120
-119
-119
-114
-108
-104
-104
-98
-96
-93
-95
-90
-89
-86
-83
-74
-66
-57
-48
-42
-33
-27
-20
-18
-12
-6
11
21
36
51
68
80
95
105
113
113
117
119
119
120
122
122
119
117
113
108
105
102
101
101
99
101
99
101
102
102
104
110
111
111
108
116
125
132
131
123
114
110
110
108
104
98
92
84
77
66
60
53
45
39
35
36
48
65
89
107
120
120
93
26
-96
-264
-441
-573
-636
-638
-603
-549
-488
-423
-368
-326
-300
-276
-254
-225
-191
-146
-95
-44
0
36
68
96
119
134
143
150
156
156
158
158
165
168
176
185
197
207
221
231
240
249
261
273
285
293
299
302
302
299
293
287
278
273
266
261
254
245
231
221
209
203
200
203
209
215
216
216
210
201
189
179
170
159
150
141
132
123
113
99
87
77
69
59
54
51
50
47
48
48
48
47
51
54
53
47
45
41
33
27
23
17
12
9
3
0
-6
-6
-8
-6
-8
-8
-9
-8
-8
-8
-11
-9
-11
-12
-12
-11
-9
-9
-6
-5
0
-6
-8
-14
-20
-23
-20
-14
-5
9
20
27
36
41
44
42
47
47
50
48
51
50
48
47
44
42
41
41
36
36
36
39
41
42
45
53
68
90
114
132
144
158
170
183
194
207
218
224
222
209
180
144
111
84
66
53
39
23
9
0
5
36
119
233
362
494
639
767
837
822
738
591
434
285
156
59
-11
-48
-77
-102
-122
-128
-132
-134
-135
-132
-128
-122
-123
-123
-122
-114
-108
-104
-98
-92
-90
-89
-84
-83
-78
-72
-65
-59
-50
-44
-36
-30
-18
-9
3
11
21
29
36
42
48
51
51
48
51
50
53
57
63
71
81
90
95
101
102
102
101
102
99
99
96
96
95
86
89
89
87
84
80
77
74
69
66
60
56
53
47
39
35
27
24
20
20
18
17
12
14
14
14
11
14
14
11
6
2
-12
-18
-21
-18
-11
3
14
20
26
30
35
35
38
36
36
33
32
30
27
23
21
18
15
12
11
9
8
9
9
9
9
9
5
5
3
5
3
9
11
12
11
18
33
53
72
95
114
123
128
132
138
144
156
171
189
201
203
188
165
137
116
92
72
48
27
8
0
-8
-8
-8
0
2
2
0
-6
11
59
150
264
387
518
654
759
797
755
656
512
362
222
107
18
-32
-54
-74
-95
-105
-107
-110
-116
-119
-116
-113
-111
-113
-108
-105
-101
-101
-96
-95
-89
-86
-80
-74
-66
-63
-54
-48
-42
-38
-27
-18
-6
8
20
30
41
53
62
71
77
84
92
99
102
107
107
108
111
110
108
110
110
110
108
110
110
107
105
105
102
101
102
98
95
90
87
81
78
72
72
66
63
60
59
57
66
80
101
125
158
188
215
233
239
231
207
177
141
111
87
65
39
18
-8
-24
-42
-48
-54
-57
-57
-56
-54
-53
-54
-51
-50
-50
-48
-47
-42
-32
-9
32
84
153
237
323
411
489
549
587
606
600
566
510
447
378
308
234
156
77
-8
-84
-144
-186
-212
-221
-222
-218
-206
-182
-161
-141
-132
-126
-126
-123
-120
-117
-116
-108
-102
-96
-89
-80
-72
-66
-59
-54
-48
-44
-36
-30
-21
-15
-9
0
6
9
15
18
29
33
39
42
48
53
59
63
69
72
77
78
78
78
78
80
77
75
74
74
71
72
72
72
68
66
59
51
44
39
36
33
30
27
24
21
20
18
17
17
18
17
21
21
24
23
24
23
21
18
21
21
21
20
20
17
15
14
17
18
18
18
20
21
21
23
20
20
20
21
21
24
24
24
23
24
26
26
24
24
24
24
24
27
27
27
29
27
27
27
29
32
42
59
80
102
126
143
156
170
186
200
212
219
228
230
224
206
177
143
111
93
77
60
41
24
9
0
0
-6
-8
-6
-5
14
59
153
278
416
557
702
819
866
828
725
567
395
242
116
26
-29
-54
-74
-90
-102
-105
-107
-110
-114
-110
-108
-105
-102
-99
-96
-92
-90
-86
-81
-77
-74
-69
-62
-57
-53
-47
-39
-33
-23
-14
0
9
23
32
44
53
66
75
84
90
98
105
107
110
114
116
116
119
117
117
114
114
111
113
111
113
108
108
107
105
102
105
105
104
101
101
101
96
93
90
86
81
80
74
69
63
59
53
50
45
41
35
33
30
29
26
29
29
29
29
32
33
35
36
39
41
42
44
41
42
41
42
45
60
81
111
137
153
126
50
-81
-230
-375
-494
-575
-600
-596
-588
-594
-627
-687
-746
-770
-756
-699
-617
-524
-447
-384
-326
-254
-168
-72
32
125
200
255
291
312
324
338
348
357
369
380
392
404
416
426
437
444
450
453
458
458
458
455
456
458
458
456
456
452
447
443
440
435
429
423
417
411
404
396
389
384
378
377
371
369
363
357
345
339
327
318
308
305
302
297
291
285
278
267
258
246
236
227
219
209
200
191
180
168
161
153
143
131
125
116
104
90
83
72
60
51
42
33
24
17
8
-5
-14
-23
-33
-42
-51
-60
-69
-72
-74
-71
-66
-54
-42
-33
-30
-27
-29
-32
-36
-42
-45
-42
-30
-18
-12
-18
-24
-30
-27
-23
-20
-24
-24
-29
-38
-48
-56
-63
-71
-83
-87
-95
-95
-93
-89
-86
-81
-78
-77
-66
-23
68
182
312
443
578
693
755
731
642
507
360
218
101
11
-44
-68
-84
-101
-114
-120
-120
-125
-131
-131
-128
-125
-126
-122
-119
-114
-114
-110
-108
-105
-104
-99
-96
-90
-87
-81
-75
-69
-63
-57
-51
-45
-38
-30
-23
-14
-5
5
11
14
18
18
23
26
30
33
38
39
42
42
45
47
47
45
42
41
39
41
39
42
44
47
47
48
47
45
41
41
38
33
27
26
21
17
9
5
0
-8
-12
-14
-17
-17
-18
-18
-18
-15
-14
-12
-9
-6
0
0
0
-11
-15
-30
-63
-146
-284
-458
-644
-819
-984
-1136
-1272
-1383
-1454
-1478
-1476
-1446
-1394
-1314
-1208
-1067
-902
-716
-516
-300
-86
114
273
387
456
492
507
515
512
504
495
486
477
474
483
506
542
581
620
648
672
684
695
699
702
705
705
702
705
701
696
690
687
681
674
666
657
650
641
635
627
623
617
612
605
600
594
588
582
582
576
570
563
557
548
539
525
513
498
482
464
446
426
408
387
366
345
321
300
276
254
233
210
186
168
147
126
104
86
66
47
27
12
-6
-18
-30
-39
-50
-59
-66
-72
-75
-78
-78
-81
-81
-83
-84
-86
-84
-84
-83
-84
-81
-80
-80
-80
-78
-77
-78
-77
-77
-78
-77
-77
-78
-77
-80
-78
-80
-78
-80
-80
-84
-83
-81
-81
-83
-80
-78
-78
-78
-75
-75
-75
-72
-74
-72
-72
-71
-71
-68
-66
-65
-63
-60
-60
-59
-59
-54
-51
-50
-50
-48
-47
-45
-42
-39
-38
-36
-30
-29
-24
-23
-21
-23
-20
-18
-15
-12
-8
-5
2
2
5
8
9
8
12
14
15
15
15
15
14
15
15
17
18
20
20
23
21
23
18
18
17
23
33
53
69
81
86
84
81
107
177
281
401
530
666
786
855
840
747
584
402
239
108
15
-42
-72
-92
-111
-119
-122
-125
-131
-134
-129
-123
-120
-120
-117
-116
-111
-111
-105
-101
-96
-96
-93
-92
-86
-84
-77
-69
-62
-57
-45
-38
-30
-24
-14
-6
3
11
17
23
30
41
45
51
56
60
62
68
69
74
74
77
77
78
74
75
74
72
69
69
66
62
62
60
60
59
56
50
47
41
39
36
38
36
35
32
32
35
36
39
45
50
54
57
65
74
83
90
99
104
105
105
99
96
99
105
108
116
119
122
117
116
107
95
81
68
57
53
53
69
98
128
177
221
249
258
251
230
210
195
179
152
119
74
32
-9
-45
-83
-120
-156
-179
-192
-204
-210
-207
-204
-204
-206
-210
-216
-212
-192
-164
-126
-90
-63
-48
-36
-30
-24
-24
-12
-5
6
12
21
30
36
42
53
60
66
74
80
84
92
99
102
105
110
113
114
119
120
123
122
126
126
126
125
129
129
132
131
134
135
135
137
137
137
137
137
134
132
131
126
120
117
113
107
99
95
90
84
77
72
68
62
57
53
50
45
44
41
38
36
36
35
36
35
35
33
35
33
33
30
33
33
35
32
33
35
35
32
33
35
35
36
35
36
38
44
53
65
80
93
96
101
101
102
102
107
102
92
77
63
42
26
11
3
-9
-17
-21
-24
-24
-24
-21
-21
-18
-15
-15
-20
-17
5
60
149
260
372
488
608
701
725
684
599
480
354
233
125
42
0
-26
-44
-65
-74
-78
-81
-89
-90
-87
-84
-86
-84
-81
-78
-77
-74
-69
-66
-63
-60
-56
-51
-45
-42
-36
-30
-23
-18
-9
5
12
18
29
36
45
48
57
63
69
71
77
77
78
78
81
81
78
78
77
77
75
77
77
78
78
78
77
80
81
84
83
87
87
87
86
87
86
83
77
74
69
66
63
57
54
48
45
39
36
32
26
20
18
14
12
9
9
5
-6
-6
12
26
11
-72
-219
-404
-596
-738
-828
-881
-906
-900
-864
-798
-716
-612
-504
-398
-303
-231
-183
-146
-114
-80
-35
33
101
167
228
278
312
330
342
345
341
333
324
312
302
291
291
306
339
372
410
437
456
468
474
477
482
485
483
483
480
479
474
473
467
461
453
447
437
428
417
407
396
392
387
387
389
396
402
407
410
414
417
414
410
399
384
366
347
323
302
282
264
245
230
212
194
173
156
138
120
99
81
59
38
21
12
2
-11
-18
-23
-23
-21
-15
-12
0
0
0
-9
-15
-21
-24
-30
-33
-38
-44
-48
-48
-48
-47
-45
-42
-44
-47
-50
-53
-53
-50
-41
-38
-33
-30
-26
-24
-21
-21
-23
-26
-26
-29
-30
-33
-33
-35
-33
-33
-30
-27
-27
-29
-32
-38
-45
-50
-56
-60
-60
-54
-51
-45
-45
-44
-44
-39
-33
-26
-21
-15
-15
-15
-18
-17
-14
-11
-6
3
9
14
15
11
8
3
3
5
11
12
12
11
11
11
15
20
29
38
44
47
47
47
44
42
38
35
32
33
35
38
41
39
39
38
39
39
38
39
36
33
30
33
39
53
71
90
108
122
131
132
134
131
135
168
242
336
441
554
674
767
798
761
653
494
329
186
81
11
-36
-65
-87
-111
-125
-129
-138
-149
-158
-159
-162
-158
-149
-134
-120
-108
-101
-93
-92
-87
-84
-78
-74
-69
-69
-69
-66
-63
-60
-57
-53
-51
-45
-39
-30
-23
-9
5
18
26
39
47
54
57
62
65
68
68
72
72
71
68
66
65
65
65
65
63
60
62
60
63
65
68
66
68
65
62
57
60
66
71
75
80
83
84
84
84
84
83
87
95
105
117
126
135
149
161
174
186
203
224
248
263
273
272
267
260
254
243
230
213
197
177
159
150
153
167
185
194
180
128
9
-180
-390
-563
-662
-677
-638
-576
-516
-456
-408
-374
-350
-321
-285
-240
-189
-138
-89
-48
-15
12
29
35
38
38
38
38
44
50
56
60
74
84
93
98
105
113
120
132
144
156
165
177
188
197
204
210
212
213
210
207
200
197
194
192
191
192
186
180
179
179
180
182
186
188
192
195
197
192
189
182
174
165
159
152
144
131
122
111
99
87
81
71
63
54
47
41
36
32
24
18
12
6
0
-6
-8
-6
-8
-9
-14
-17
-21
-20
-18
-18
-15
-14
-15
-20
-27
-39
-48
-56
-53
-42
-27
-11
8
15
23
24
27
27
27
27
24
21
23
21
23
23
24
24
20
15
15
15
15
17
17
18
18
21
23
26
29
35
39
47
48
54
57
62
63
63
62
62
60
59
56
56
54
53
53
53
57
69
90
111
134
153
168
180
201
218
233
237
246
246
240
222
198
165
129
98
75
51
27
8
-12
-21
-27
-29
-33
-36
-42
-45
-38
15
102
218
345
486
630
744
785
752
657
518
371
237
123
39
-14
-42
-66
-87
-98
-102
-104
-111
-116
-114
-110
-107
-105
-104
-99
-99
-101
-101
-96
-96
-95
-92
-86
-81
-75
-69
-63
-56
-48
-39
-30
-24
-20
-14
-11
0
5
11
18
32
45
57
65
77
86
90
93
96
99
102
107
105
102
98
90
84
83
80
80
78
81
81
83
80
81
80
77
72
72
72
71
69
65
57
51
45
38
33
27
23
14
9
0
-11
-21
-30
-39
-39
-32
-17
-8
-18
-56
-107
-164
-209
-237
-261
-288
-321
-359
-404
-446
-482
-506
-525
-534
-543
-549
-548
-518
-468
-396
-315
-224
-134
-48
42
126
194
240
267
281
282
281
279
273
269
263
258
258
267
279
299
318
347
375
401
422
440
447
450
452
453
453
453
452
449
443
432
423
410
399
389
384
381
381
381
381
377
375
369
360
350
344
336
324
312
303
291
279
266
252
239
225
213
198
183
170
161
156
156
156
156
152
149
138
131
119
110
98
84
72
65
57
47
41
30
21
14
9
3
0
-8
-6
-9
-9
-12
-14
-17
-17
-15
-15
-18
-18
-17
-17
-18
-15
-15
-17
-15
-17
-18
-20
-18
-21
-24
-29
-32
-35
-35
-38
-39
-44
-42
-38
-35
-30
-20
-11
0
6
9
11
9
11
11
11
9
9
6
6
3
3
0
2
2
2
0
2
3
3
2
3
5
5
3
5
8
8
11
11
11
11
9
14
17
17
18
18
21
21
24
23
27
29
30
29
32
35
35
35
36
38
39
41
42
41
42
44
42
45
44
48
59
78
99
122
140
161
176
195
212
227
237
243
249
248
234
207
170
134
132
185
281
398
531
672
801
881
881
786
620
416
236
95
0
-62
-89
-110
-131
-146
-150
-150
-153
-155
-153
-147
-144
-143
-141
-134
-132
-129
-129
-123
-120
-119
-117
-110
-105
-101
-96
-89
-81
-75
-69
-60
-51
-45
-36
-29
-20
-12
2
9
17
21
29
33
39
44
47
48
53
56
57
57
59
62
60
60
62
62
62
63
62
60
59
60
57
57
56
54
50
50
47
45
41
39
38
35
30
30
27
24
23
21
18
20
23
24
33
44
65
95
141
194
243
276
287
275
246
204
153
89
27
-42
-104
-167
-230
-276
-302
-308
-297
-273
-245
-212
-167
-105
-39
23
45
23
-36
-84
-102
-96
-80
-63
-59
-63
-72
-72
-66
-48
-17
27
69
105
132
152
162
170
174
177
185
191
195
198
203
203
203
201
203
201
203
198
198
198
197
197
195
197
195
194
189
186
185
183
179
179
176
173
168
168
165
164
161
162
159
159
156
156
155
155
153
152
149
144
143
137
132
126
123
114
110
104
98
90
84
78
72
65
63
59
54
50
47
45
42
41
38
36
36
35
33
32
30
32
29
30
29
27
24
26
24
23
20
21
18
17
12
12
9
6
6
5
0
0
0
-6
-8
-9
-9
-12
-11
-12
-14
-15
-14
-15
-15
-18
-17
-15
-17
-18
-17
-15
-15
-14
-14
-14
-12
-11
-12
-9
-9
-6
-8
0
2
3
2
6
6
9
8
12
14
14
17
17
20
20
23
24
24
26
29
29
32
33
35
36
39
41
42
42
48
50
53
53
57
60
60
60
60
60
60
66
74
90
110
132
150
167
177
189
195
201
195
185
192
245
329
431
537
659
774
846
842
761
609
429
270
141
47
-14
-44
-68
-87
-102
-104
-104
-104
-105
-102
-102
-101
-102
-102
-102
-98
-99
-99
-96
-95
-93
-92
-86
-84
-81
-78
-75
-72
-65
-59
-51
-44
-33
-27
-18
-15
-9
-6
3
8
18
24
29
33
38
42
45
48
48
50
51
53
51
53
53
54
56
59
59
59
54
56
54
51
47
47
42
39
36
35
33
35
38
39
44
45
51
54
63
69
81
96
128
164
207
248
288
324
351
359
347
318
270
212
140
54
-47
-138
-225
-297
-360
-405
-438
-465
-485
-486
-464
-399
-309
-221
-150
-87
-36
11
41
57
59
57
59
60
65
69
81
90
101
111
125
137
150
162
176
186
198
206
213
216
225
228
230
230
233
233
230
230
227
225
222
221
215
212
204
198
194
188
185
179
173
170
165
161
155
152
149
144
141
140
137
135
134
131
129
123
126
120
119
113
110
104
99
93
87
78
75
68
62
54
50
45
41
36
35
33
30
29
24
23
21
23
18
20
18
20
17
18
17
17
15
17
18
17
14
15
15
14
15
15
17
15
17
15
15
15
17
17
17
18
18
17
18
18
18
17
18
18
18
17
18
18
17
17
18
17
17
18
17
17
17
20
18
18
17
17
15
17
18
18
15
20
20
20
18
21
21
21
21
24
26
32
47
63
86
108
131
146
162
180
201
212
224
230
234
228
216
189
153
120
96
77
56
32
14
-5
-12
-14
-14
-14
-14
-12
-17
-15
12
78
170
290
414
546
680
764
770
711
596
452
305
176
74
6
-36
-56
-72
-92
-98
-99
-101
-108
-107
-104
-99
-101
-98
-96
-92
-95
-90
-87
-84
-86
-81
-77
-72
-68
-62
-54
-48
-38
-32
-23
-14
0
6
18
26
36
41
48
54
60
62
68
71
71
71
74
74
74
74
72
71
66
66
63
62
62
63
62
66
65
66
63
68
68
69
65
65
62
62
57
57
54
50
44
36
29
21
15
8
3
-8
-12
-20
-23
-27
-26
-20
5
38
90
155
221
263
264
230
173
98
15
-74
-150
-210
-255
-294
-339
-384
-425
-458
-485
-500
-509
-506
-489
-455
-408
-354
-302
-243
-179
-104
-30
44
101
138
165
182
194
198
203
207
215
222
228
228
230
228
231
240
258
276
296
312
333
344
351
354
357
357
356
351
342
330
317
300
282
269
260
258
261
269
275
278
275
275
269
263
254
252
249
245
234
224
213
203
195
189
186
186
185
179
170
161
150
141
132
123
111
101
93
83
71
60
54
45
32
18
12
5
3
5
5
3
3
5
5
5
5
6
5
5
0
-9
-17
-18
-18
-15
-18
-18
-21
-23
-21
-15
-11
-8
-6
-6
0
3
9
11
9
0
-12
-20
-21
-18
-14
-6
15
35
51
59
62
65
69
75
81
75
60
44
26
9
-8
-15
-23
-24
-24
-15
-8
9
17
21
18
17
11
8
20
75
162
267
383
501
624
716
741
701
612
491
366
242
131
42
-12
-42
-65
-87
-104
-116
-120
-132
-135
-135
-132
-134
-135
-131
-123
-117
-108
-93
-78
-62
-48
-36
-33
-27
-24
-21
-20
-14
-9
0
3
9
9
9
9
18
29
38
47
57
65
77
89
98
104
105
105
101
99
93
90
83
78
71
65
57
51
45
42
36
38
39
44
48
54
57
59
65
66
69
68
63
54
47
36
30
21
18
11
5
-9
-15
-27
-39
-51
-54
-48
-36
-8
35
59
57
18
-69
-183
-317
-437
-516
-539
-522
-489
-470
-461
-456
-438
-401
-338
-246
-131
-12
96
176
227
252
255
246
231
216
198
180
165
152
143
141
146
161
188
227
264
297
317
330
338
342
342
342
341
338
338
335
332
329
326
321
320
318
317
315
315
314
317
317
324
332
335
335
338
338
335
330
329
318
306
291
279
269
258
249
236
225
216
212
203
195
183
173
159
150
140
131
117
107
95
80
63
53
39
27
17
6
-6
-15
-24
-33
-38
-39
-36
-35
-27
-20
-12
-11
0
0
0
-8
-6
-6
-9
-11
-6
0
3
11
11
11
9
11
11
12
14
14
11
11
8
2
-9
-11
-17
-21
-26
-24
-24
-26
-24
-21
-18
-14
-9
0
6
11
15
18
20
18
15
9
3
-6
-8
-12
-11
-12
-15
-20
-23
-24
-24
-21
-15
-12
-11
-6
0
6
14
21
23
24
24
27
27
30
30
29
26
26
24
23
23
24
26
26
24
26
26
24
23
21
20
23
29
30
32
32
30
24
21
17
15
15
23
29
35
38
44
51
60
77
95
110
116
119
113
129
185
281
390
507
626
738
806
812
749
621
459
312
192
104
48
23
6
-18
-35
-42
-48
-57
-65
-69
-71
-74
-74
-75
-74
-74
-74
-77
-75
-74
-74
-75
-69
-68
-65
-62
-54
-48
-45
-39
-33
-27
-24
-17
-12
-6
6
15
21
26
29
33
35
42
47
53
57
65
66
68
66
71
72
74
77
80
81
81
81
78
75
75
75
75
77
77
75
71
72
71
74
75
80
80
78
78
81
84
87
90
95
99
107
117
122
132
144
162
180
201
219
234
245
258
270
284
294
302
299
288
269
245
218
189
167
149
135
131
135
149
168
180
177
129
23
-140
-297
-411
-453
-438
-395
-363
-336
-318
-303
-290
-272
-248
-227
-197
-162
-123
-86
-56
-35
-20
-11
0
0
0
2
8
11
18
23
30
36
44
51
59
65
74
83
92
101
108
117
125
131
137
143
147
153
155
158
158
161
161
164
165
167
164
165
165
164
159
159
156
153
152
149
147
144
146
143
140
137
134
131
128
123
119
111
108
101
95
84
81
77
71
65
60
56
51
47
41
36
33
30
29
27
24
23
20
17
12
12
9
11
12
14
12
12
12
12
11
14
14
15
17
17
17
18
20
20
23
21
23
23
23
21
21
18
20
20
21
18
21
23
23
23
27
29
30
35
33
33
35
36
38
39
41
44
44
45
45
47
45
48
50
50
48
50
53
53
56
63
78
96
119
140
159
177
198
218
237
251
263
266
269
261
245
213
179
144
117
93
72
47
24
6
-8
-11
-9
0
2
3
2
0
0
20
78
174
290
417
551
684
771
789
729
615
465
321
191
83
11
-33
-53
-72
-87
-96
-95
-96
-102
-108
-104
-104
-104
-105
-102
-101
-99
-101
-96
-92
-90
-90
-86
-83
-81
-77
-71
-63
-56
-44
-33
-23
-14
0
8
15
24
35
44
54
63
69
72
75
77
75
75
75
77
77
77
78
78
78
78
77
75
74
74
71
71
69
69
68
72
71
71
66
65
60
54
47
44
42
41
39
38
35
30
24
15
6
-11
-27
-50
-71
-78
-68
-42
2
35
53
42
23
-14
-50
-86
-113
-140
-170
-203
-240
-278
-312
-338
-359
-381
-407
-432
-465
-482
-482
-447
-393
-321
-249
-180
-123
-59
11
74
129
176
207
228
242
251
260
270
285
297
311
318
326
332
339
347
354
360
366
371
369
365
362
362
360
362
365
369
378
389
399
405
405
401
392
383
369
359
345
335
323
312
300
291
278
267
254
245
234
224
212
203
192
180
173
164
162
171
189
207
230
251
272
290
303
303
300
296
291
278
249
209
170
132
95
59
24
-11
-36
-51
-69
-83
-93
-99
-105
-110
-114
-114
-119
-120
-122
-120
-123
-119
-110
-84
-38
45
155
287
407
501
563
594
585
495
302
26
-276
-531
-699
-780
-786
-746
-671
-587
-510
-441
-363
-276
-195
-138
-102
-83
-72
-60
-48
-36
-24
-11
5
18
29
39
47
56
60
69
72
81
89
96
102
113
120
128
134
143
150
155
161
165
168
171
173
171
171
170
167
161
156
150
144
135
128
119
114
113
114
114
111
105
99
92
87
78
77
72
65
65
59
57
54
59
53
54
54
57
57
60
63
69
72
78
86
92
98
108
119
128
132
138
137
129
119
113
125
156
209
273
356
458
591
750
930
1107
1239
1313
1319
1254
1157
1058
986
903
792
660
483
290
110
-68
-218
-330
-405
-455
-486
-494
-482
-461
-438
-422
-408
-401
-398
-395
-390
-390
-390
-389
-386
-384
-378
-372
-365
-357
-348
-341
-332
-321
-309
-300
-288
-276
-263
-252
-237
-224
-209
-198
-182
-170
-161
-152
-141
-134
-129
-123
-120
-120
-119
-116
-113
-110
-108
-105
-108
-107
-105
-104
-104
-101
-96
-92
-89
-81
-72
-65
-59
-48
-42
-32
-23
-15
-6
5
12
18
24
32
42
50
60
66
74
77
83
84
89
87
92
95
95
95
96
96
95
95
95
93
92
90
89
87
86
86
83
83
81
81
77
77
75
75
72
71
66
59
50
45
39
35
35
32
33
33
41
47
54
62
68
69
74
75
77
77
78
80
80
78
81
81
78
77
75
74
74
75
75
75
75
77
74
75
74
75
72
75
74
74
72
75
75
74
72
74
72
71
71
71
71
72
72
71
72
72
74
72
75
80
98
125
165
212
263
306
344
366
375
372
360
338
311
281
242
194
150
140
182
276
395
533
672
803
882
881
780
618
435
263
123
30
-38
-72
-96
-116
-131
-135
-138
-138
-141
-137
-131
-129
-128
-126
-122
-119
-119
-117
-111
-108
-107
-104
-99
-98
-92
-86
-83
-78
-69
-63
-56
-48
-39
-30
-21
-11
0
9
17
26
32
39
44
51
54
59
62
65
65
69
71
71
71
74
75
77
78
80
80
81
84
83
84
84
86
83
84
84
83
81
81
81
80
78
78
78
81
83
89
95
102
120
147
174
194
221
251
293
341
386
408
414
401
371
314
239
137
21
-110
-236
-360
-476
-573
-632
-644
-614
-545
-456
-365
-279
-198
-122
-45
29
99
161
210
240
246
224
188
147
114
90
81
77
75
78
89
99
108
120
128
137
143
149
153
156
159
162
161
161
161
159
155
156
153
152
149
147
144
141
138
138
134
131
129
126
122
120
117
114
111
108
107
102
101
98
96
92
90
87
83
78
77
72
66
62
59
54
50
45
39
35
29
26
21
18
14
12
8
6
5
5
2
3
0
0
0
0
2
2
2
2
2
0
3
2
2
3
5
5
6
6
8
6
9
9
9
9
12
12
14
12
17
17
18
20
23
24
24
27
27
29
29
32
32
35
35
36
36
39
39
41
41
45
45
47
42
45
45
47
45
45
47
47
47
45
45
45
45
45
45
45
47
44
47
45
47
47
57
71
89
110
134
155
170
186
206
221
234
245
249
249
240
224
191
158
129
107
86
68
45
27
12
5
-6
-9
-11
18
84
188
311
441
578
711
801
813
755
635
480
326
194
84
12
-35
-59
-80
-98
-108
-107
-110
-116
-116
-111
-108
-110
-110
-105
-102
-102
-99
-99
-96
-95
-93
-90
-84
-80
-75
-69
-60
-51
-44
-36
-24
-15
-8
5
17
24
32
38
42
47
54
57
62
65
65
68
68
69
69
69
65
66
66
66
65
71
72
74
72
74
75
74
75
72
72
74
74
72
71
66
63
57
51
45
39
32
26
18
9
0
-9
-15
-21
-29
-29
-26
-15
12
47
102
173
234
267
269
239
189
122
36
-81
-215
-362
-500
-620
-696
-723
-693
-620
-513
-392
-263
-143
-48
27
69
96
110
122
125
131
132
137
138
143
146
152
153
158
161
167
170
176
177
179
180
186
191
192
194
194
200
213
230
246
261
272
276
275
273
267
261
252
246
240
236
230
230
230
225
221
216
212
206
203
197
189
182
177
170
164
155
150
140
134
125
117
107
102
95
89
81
78
71
65
59
56
50
47
44
38
33
30
26
24
23
20
18
15
15
14
12
8
9
8
6
0
0
0
0
-6
0
2
6
14
14
18
18
17
14
15
15
20
21
30
29
30
29
30
27
23
18
17
17
15
14
15
15
20
24
27
29
32
33
32
33
39
56
71
83
83
77
72
78
89
99
101
98
86
66
47
33
21
9
3
-9
-14
-17
-18
-21
-23
-21
-21
-27
-30
-14
51
153
285
420
558
696
807
854
819
716
557
384
231
108
21
-30
-54
-74
-95
-104
-107
-110
-117
-119
-120
-120
-128
-131
-131
-129
-131
-125
-119
-110
-104
-98
-95
-92
-90
-90
-89
-89
-84
-83
-74
-60
-41
-21
3
18
30
33
39
41
42
45
48
53
57
62
62
63
65
68
68
68
66
66
60
57
54
53
51
53
54
56
54
54
51
48
45
45
44
42
41
38
35
32
29
23
15
3
-12
-23
-26
-29
-30
-36
-36
-30
-21
0
24
54
93
134
161
155
117
66
6
-53
-114
-200
-318
-452
-590
-711
-798
-842
-840
-794
-714
-593
-446
-287
-134
5
105
168
203
218
221
219
221
216
210
201
197
186
179
173
173
176
198
227
261
288
311
326
336
341
353
359
360
359
357
354
348
347
347
345
348
348
345
341
335
330
321
318
312
309
305
300
294
288
279
275
269
263
255
246
236
224
216
209
204
198
192
183
173
161
150
135
126
117
113
102
98
89
78
62
51
39
29
21
18
18
17
18
15
14
12
11
3
-9
-15
-20
-26
-27
-30
-32
-33
-29
-24
-18
-18
-15
-15
-15
-15
-15
-18
-21
-21
-26
-24
-24
-20
-18
-15
-17
-20
-24
-23
-24
-24
-32
-29
-27
-26
-24
-21
-21
-21
-17
-8
6
14
18
15
11
6
3
-8
-8
-9
-9
-14
-14
-15
-18
-21
-20
-17
-12
-11
-6
0
0
0
3
3
3
5
3
0
3
6
6
11
15
17
15
15
12
11
8
6
3
3
3
12
18
26
30
33
35
33
35
35
36
39
42
42
45
45
45
45
53
60
69
75
90
105
122
137
152
161
165
168
168
161
162
203
276
375
485
605
726
825
858
813
684
504
320
167
51
-23
-63
-89
-111
-128
-134
-134
-134
-135
-132
-128
-120
-120
-119
-119
-117
-119
-116
-111
-105
-102
-95
-90
-86
-84
-80
-78
-75
-72
-66
-59
-53
-47
-42
-35
-24
-11
6
20
30
41
48
57
63
68
68
72
74
77
75
77
77
75
72
72
71
72
74
74
75
77
77
75
75
74
71
65
60
56
53
47
47
45
45
45
48
50
53
59
65
71
74
81
86
96
113
131
147
164
174
180
179
179
180
188
192
201
204
213
224
237
240
230
216
206
198
195
194
192
188
171
132
47
-105
-309
-536
-729
-849
-903
-884
-813
-707
-590
-488
-405
-341
-293
-257
-230
-212
-192
-162
-117
-74
-29
17
56
83
108
131
149
158
170
180
191
197
204
210
216
221
230
239
246
254
260
266
273
279
281
284
287
290
291
291
288
282
275
270
266
264
258
258
258
258
260
264
264
261
258
255
251
246
245
239
233
228
224
216
210
204
197
186
179
170
159
147
141
129
119
107
96
86
74
62
50
39
29
18
3
-18
-36
-50
-60
-60
-56
-44
-33
-18
-9
2
2
6
6
5
2
2
-6
-11
-12
-14
-14
-14
-12
-14
-14
-15
-14
-15
-14
-12
-11
-12
-8
-8
-6
-6
-5
-6
-5
-5
0
2
0
2
3
5
8
11
12
17
18
21
18
20
18
17
15
17
18
18
18
21
23
23
21
24
24
24
27
26
24
23
24
23
24
24
30
35
47
65
86
107
131
147
162
174
194
207
216
224
228
225
212
188
153
120
95
77
57
38
17
2
-14
-18
-21
-24
-27
-14
35
120
231
357
485
620
729
774
743
647
518
369
237
117
30
-30
-57
-78
-98
-111
-113
-114
-117
-122
-119
-116
-114
-116
-111
-108
-107
-105
-102
-99
-96
-93
-90
-86
-80
-74
-68
-62
-54
-45
-38
-29
-20
-9
0
11
18
27
33
39
47
51
56
60
63
63
66
66
66
66
66
63
63
62
62
60
62
62
63
60
65
66
66
65
66
66
66
63
62
59
54
53
47
41
35
30
23
17
11
5
-9
-14
-21
-26
-33
-33
-32
-26
-14
17
59
104
144
162
156
131
102
69
32
-18
-74
-140
-203
-263
-314
-360
-396
-438
-485
-534
-575
-603
-606
-582
-531
-462
-377
-278
-176
-75
23
108
174
221
243
248
240
231
225
221
212
207
203
200
200
210
225
242
263
287
311
333
350
362
369
374
378
377
377
374
372
368
363
357
353
344
339
333
326
318
314
305
299
290
284
278
270
264
255
248
240
234
225
219
210
204
197
189
180
174
164
156
150
143
134
126
119
108
101
93
87
78
72
65
59
53
47
39
35
30
27
23
21
17
17
12
14
12
11
9
11
9
9
8
9
9
9
9
9
8
8
11
11
12
12
14
12
15
15
15
14
15
15
15
11
12
12
12
15
21
29
39
53
63
71
72
75
77
80
77
68
51
38
18
5
-11
-18
-27
-33
-42
-44
-44
-42
-42
-39
-36
-33
-32
-33
-32
-12
51
144
260
383
504
627
726
758
717
620
485
345
215
99
20
-27
-48
-66
-84
-96
-99
-99
-107
-110
-108
-102
-104
-102
-101
-96
-96
-93
-90
-86
-86
-83
-80
-75
-74
-68
-63
-57
-53
-45
-42
-33
-26
-18
-11
2
8
11
18
23
27
29
35
38
39
41
42
44
44
42
42
42
42
42
42
44
45
50
53
54
54
56
53
53
51
51
48
48
47
45
39
36
32
26
20
18
14
8
2
-8
-15
-21
-27
-35
-44
-53
-59
-59
-48
-33
-12
6
9
-24
-96
-206
-318
-410
-465
-492
-501
-506
-518
-530
-536
-527
-498
-444
-381
-314
-260
-216
-183
-155
-129
-99
-60
2
69
140
200
248
276
294
305
312
314
309
303
293
282
269
260
255
263
287
321
359
393
414
431
437
443
443
443
441
441
440
437
432
431
426
422
419
413
410
404
402
395
390
384
383
374
368
360
351
341
333
323
311
297
287
275
263
249
239
227
213
200
185
173
161
150
137
123
111
101
87
77
66
57
44
38
29
21
12
6
2
-6
-11
-12
-12
-17
-18
-20
-20
-21
-20
-21
-21
-21
-21
-21
-20
-23
-21
-24
-21
-21
-20
-21
-20
-17
-17
-18
-17
-15
-15
-15
-15
-15
-14
-12
-15
-17
-18
-18
-20
-18
-18
-18
-21
-20
-21
-21
-26
-24
-23
-24
-23
-21
-20
-21
-20
-21
-21
-20
-17
-17
-14
-12
-11
-12
-8
-9
-6
-6
2
5
5
6
9
12
12
14
17
17
18
20
21
23
24
27
27
29
30
33
33
36
36
38
36
41
41
41
39
42
45
44
44
44
44
44
45
44
44
44
45
44
44
44
44
42
45
48
59
72
93
111
128
138
147
152
152
149
167
224
314
419
530
653
768
842
840
762
609
423
254
123
30
-30
-63
-81
-98
-111
-117
-116
-117
-120
-117
-113
-111
-108
-105
-102
-99
-99
-96
-93
-90
-87
-84
-81
-75
-71
-66
-62
-53
-45
-38
-32
-21
-14
-8
5
14
20
27
35
39
45
51
57
59
65
66
71
71
75
75
75
74
77
77
77
74
75
74
71
69
66
63
62
60
57
57
54
54
50
47
45
44
41
42
44
45
42
48
51
59
65
81
102
129
167
210
260
308
354
386
404
402
383
348
317
288
258
228
201
173
147
123
107
90
77
65
57
54
60
71
84
95
96
92
69
20
-74
-183
-278
-312
-287
-216
-146
-92
-63
-48
-47
-48
-57
-69
-84
-96
-108
-119
-120
-119
-117
-114
-108
-105
-102
-96
-90
-84
-75
-69
-60
-51
-38
-24
-14
-5
12
21
30
39
51
63
72
83
89
90
89
89
89
92
92
95
93
95
95
98
95
96
95
93
92
98
101
105
105
107
108
108
107
102
99
95
95
89
83
78
75
69
66
60
53
44
36
29
18
6
0
-9
-9
-6
0
5
5
5
5
5
8
14
18
23
26
27
26
24
21
15
11
14
12
12
11
14
17
21
26
33
39
45
48
47
45
42
42
39
39
39
39
38
36
35
30
24
24
26
27
26
29
33
35
38
45
51
57
65
68
69
69
71
71
77
84
101
119
140
156
168
174
186
203
219
233
249
260
264
263
249
219
185
153
123
98
72
45
20
2
-12
-15
-18
-18
-21
-21
-27
-30
-30
-5
66
171
299
432
579
717
803
801
728
591
428
273
140
36
-30
-63
-83
-104
-119
-128
-131
-138
-140
-141
-138
-138
-137
-134
-128
-120
-111
-102
-90
-83
-80
-75
-71
-63
-59
-50
-44
-38
-33
-24
-17
-11
0
9
17
26
32
41
48
53
59
62
66
69
72
71
71
69
69
66
66
60
54
48
50
53
59
65
77
87
96
102
107
107
104
101
96
93
89
84
77
69
62
54
44
38
32
27
21
18
11
5
-8
-9
-12
-18
-27
-27
-23
0
33
71
86
71
24
-38
-86
-122
-153
-191
-234
-284
-338
-395
-446
-489
-518
-531
-521
-498
-465
-422
-368
-311
-252
-192
-134
-66
12
84
141
183
207
219
219
219
219
222
227
239
248
254
255
261
267
276
291
311
330
348
363
372
378
381
383
378
377
374
375
374
374
369
368
360
359
353
348
339
336
330
324
315
309
302
293
285
275
264
255
248
237
228
218
209
197
188
177
168
158
150
138
126
113
114
129
167
221
273
279
213
80
-95
-254
-383
-486
-578
-626
-624
-588
-537
-489
-455
-417
-371
-312
-258
-213
-177
-146
-125
-108
-86
-54
-20
20
56
84
111
137
162
182
195
201
203
197
189
177
167
155
152
153
167
189
222
255
284
302
309
305
297
291
285
284
281
281
278
278
276
275
273
273
270
269
264
261
258
254
251
251
249
248
245
242
239
236
234
228
227
222
216
209
201
192
183
171
162
153
143
131
123
113
104
95
89
81
75
71
65
59
53
47
39
33
29
27
21
18
17
15
14
17
17
18
17
14
3
-11
-20
-9
27
84
165
264
371
473
543
570
569
543
507
455
369
255
131
12
-86
-164
-231
-287
-318
-327
-306
-263
-212
-162
-129
-110
-104
-104
-114
-119
-128
-134
-137
-137
-138
-134
-131
-126
-125
-120
-120
-117
-119
-113
-107
-101
-93
-84
-74
-65
-57
-48
-38
-27
-15
-6
9
21
30
38
47
51
57
60
68
72
77
78
84
87
90
92
95
95
89
86
80
75
69
66
59
54
50
48
42
41
36
35
29
29
29
30
29
35
36
39
39
44
45
47
48
51
54
54
57
56
59
59
60
59
59
57
54
51
50
48
45
41
41
39
36
33
30
27
21
18
15
12
11
9
5
3
0
0
-6
-6
-8
-8
-11
-9
-12
-15
-24
-27
-30
-27
-23
-14
-6
6
14
18
21
20
21
20
23
23
24
24
27
26
26
23
23
24
26
29
35
39
41
41
42
42
44
45
44
45
48
56
62
71
75
78
77
78
77
77
74
77
77
80
81
87
90
90
90
89
87
83
81
77
75
72
69
71
105
179
290
416
558
711
849
930
936
857
701
509
335
192
90
30
0
-27
-47
-56
-60
-63
-68
-72
-77
-74
-77
-78
-78
-75
-74
-75
-75
-69
-68
-65
-66
-62
-60
-59
-57
-54
-51
-48
-41
-35
-23
-11
8
18
29
38
45
51
59
65
71
75
86
92
95
95
98
99
98
99
101
102
101
98
90
83
75
71
68
69
72
77
80
86
90
93
95
99
99
101
99
102
104
101
99
99
98
99
102
102
105
108
114
120
131
138
149
158
174
188
201
207
210
210
212
216
233
254
276
297
308
302
276
239
180
102
-14
-174
-386
-608
-795
-909
-923
-836
-699
-554
-437
-362
-327
-317
-312
-303
-296
-281
-255
-219
-186
-153
-123
-101
-78
-56
-27
8
48
90
132
165
192
207
215
218
225
231
239
243
251
254
257
258
261
266
269
275
279
279
279
281
278
282
284
288
287
291
290
288
284
282
281
275
269
264
261
258
263
269
278
288
297
297
299
299
297
291
285
273
263
246
231
213
197
177
162
147
131
117
105
96
84
77
66
59
53
48
39
