Var1
-204
-208
-206
-212
-216
-218
-218
-226
-226
-218
-218
-212
-210
-216
-216
-198
-196
-208
-216
-224
-228
-226
-242
-276
-316
-326
-342
-354
-356
-348
-350
-382
-448
-512
-546
-576
-650
-762
-878
-944
-958
-934
-926
-930
-878
-800
-732
-676
-620
-574
-524
-470
-420
-384
-344
-304
-266
-240
-218
-196
-174
-164
-160
-154
-138
-128
-128
-116
-104
-102
-94
-84
-80
-76
-76
-74
-74
-72
-72
-72
-74
-84
-88
-84
-82
-96
-100
-100
-104
-114
-116
-134
-146
-154
-156
-170
-182
-188
-182
-190
-198
-212
-218
-212
-188
-176
-172
-168
-152
-154
-158
-160
-174
-186
-186
-186
-204
-234
-262
-274
-292
-306
-324
-358
-388
-406
-416
-424
-432
-434
-440
-446
-452
-460
-462
-466
-466
-470
-472
-472
-470
-480
-488
-492
-478
-478
-486
-490
-496
-502
-494
-516
-530
-544
-550
-564
-592
-644
-678
-688
-702
-714
-716
-706
-708
-744
-826
-902
-952
-978
-1054
-1168
-1276
-1334
-1336
-1286
-1262
-1244
-1188
-1104
-1028
-964
-904
-856
-808
-762
-720
-684
-644
-602
-560
-536
-512
-494
-470
-456
-446
-436
-418
-410
-400
-388
-374
-366
-356
-346
-334
-326
-320
-320
-306
-288
-284
-284
-284
-280
-276
-272
-272
-268
-276
-282
-282
-280
-282
-284
-292
-298
-300
-304
-304
-300
-298
-298
-296
-306
-306
-306
-288
-256
-240
-240
-228
-222
-220
-228
-230
-232
-232
-246
-254
-284
-312
-324
-334
-348
-362
-396
-410
-428
-450
-456
-456
-464
-468
-468
-480
-480
-472
-464
-468
-478
-480
-480
-478
-474
-478
-484
-484
-476
-476
-466
-456
-450
-446
-462
-464
-466
-466
-476
-498
-530
-560
-566
-576
-588
-584
-566
-552
-578
-634
-718
-756
-778
-832
-922
-1004
-1044
-1026
-956
-900
-858
-786
-708
-634
-566
-514
-460
-418
-364
-314
-270
-226
-178
-140
-110
-76
-44
-26
-8
14
30
46
60
68
76
102
118
134
148
158
158
172
182
196
200
204
208
218
212
212
220
232
232
240
236
226
226
232
232
230
224
218
218
220
230
234
236
228
230
240
242
258
286
294
310
328
338
334
334
330
324
318
316
302
280
256
242
224
208
206
174
144
124
112
98
94
86
88
82
80
78
80
76
80
80
76
70
76
74
68
68
68
66
74
82
82
84
84
62
50
46
38
28
2
-44
-84
-100
-118
-136
-126
-106
-100
-126
-190
-276
-322
-342
-390
-474
-554
-610
-604
-530
-468
-430
-364
-300
-232
-182
-126
-80
-40
6
50
88
128
162
194
220
240
268
286
292
302
310
312
322
326
336
342
348
346
358
370
382
388
388
384
386
388
386
386
386
386
382
378
372
374
372
372
366
356
348
346
342
340
334
338
330
328
332
336
338
348
358
378
394
402
406
414
422
418
408
396
392
384
376
356
324
292
284
266
248
228
194
168
150
134
118
108
92
80
88
94
90
88
84
78
80
82
76
76
78
84
72
74
78
86
96
96
92
90
68
70
56
50
38
12
-36
-76
-90
-114
-120
-112
-86
-86
-126
-202
-274
-320
-348
-416
-506
-584
-612
-596
-526
-480
-438
-372
-308
-244
-184
-128
-74
-32
10
48
90
134
172
212
232
260
286
302
306
330
344
356
366
374
376
386
396
402
408
418
420
422
426
432
434
438
430
434
428
430
442
430
422
422
422
414
414
414
404
394
386
380
380
378
378
368
366
366
364
374
382
404
416
418
420
428
428
428
410
398
390
378
362
346
304
282
268
238
222
206
174
150
132
110
96
88
86
76
66
62
66
60
54
50
52
46
48
46
44
36
38
40
36
36
38
38
40
30
10
8
2
-10
-30
-64
-108
-136
-154
-178
-182
-168
-152
-164
-212
-288
-350
-390
-432
-504
-586
-652
-672
-624
-558
-522
-470
-400
-330
-272
-214
-166
-114
-70
-20
32
74
112
148
172
200
238
264
280
290
296
302
316
330
338
342
352
360
368
368
374
378
386
386
390
384
384
380
390
390
388
378
370
366
366
358
356
346
338
326
316
308
304
302
300
292
286
286
276
274
274
280
292
300
310
316
314
306
294
278
268
260
242
216
182
150
130
106
88
56
8
-26
-44
-64
-76
-96
-108
-126
-130
-140
-150
-156
-156
-166
-178
-190
-194
-200
-204
-212
-224
-236
-234
-234
-238
-242
-236
-240
-268
-272
-282
-288
-304
-340
-394
-432
-444
-460
-472
-466
-446
-446
-480
-550
-622
-676
-708
-768
-858
-954
-1004
-1002
-950
-928
-908
-852
-776
-716
-660
-612
-562
-520
-474
-424
-376
-340
-296
-262
-242
-220
-186
-168
-158
-142
-132
-120
-114
-104
-92
-80
-70
-62
-56
-48
-40
-32
-32
-28
-20
-14
-16
-16
-14
-16
-16
-18
-20
-20
-20
-24
-30
-36
-36
-50
-58
-68
-68
-74
-78
-88
-90
-104
-108
-106
-96
-78
-60
-56
-48
-34
-22
-26
-34
-44
-54
-56
-64
-82
-116
-138
-150
-170
-188
-210
-242
-262
-284
-296
-300
-312
-324
-324
-324
-322
-324
-330
-338
-340
-338
-340
-340
-342
-342
-346
-348
-344
-336
-336
-334
-336
-324
-326
-344
-352
-360
-368
-378
-410
-452
-472
-464
-474
-472
-456
-442
-448
-488
-552
-618
-652
-686
-772
-872
-958
-996
-980
-942
-928
-906
-840
-774
-706
-642
-580
-532
-478
-416
-366
-316
-278
-238
-200
-166
-148
-126
-112
-92
-84
-68
-58
-46
-38
-18
-8
2
10
22
32
44
46
50
54
56
62
62
62
60
64
56
54
52
50
40
32
26
24
14
6
-10
-20
-26
-24
-28
-38
-46
-52
-58
-54
-48
-36
-22
-12
6
6
12
10
8
0
-10
-20
-28
-48
-74
-100
-110
-132
-146
-164
-196
-220
-236
-250
-256
-260
-270
-276
-282
-280
-288
-292
-294
-292
-292
-290
-294
-296
-296
-290
-284
-286
-286
-278
-278
-270
-260
-260
-276
-284
-294
-312
-334
-360
-402
-436
-434
-434
-426
-416
-402
-406
-436
-504
-562
-604
-632
-710
-808
-898
-950
-950
-902
-884
-870
-806
-728
-660
-592
-530
-484
-434
-372
-320
-276
-232
-194
-156
-128
-104
-80
-52
-46
-36
-30
-20
-6
2
8
12
24
32
38
44
50
46
52
60
68
64
64
60
62
60
58
46
38
30
30
30
26
14
-6
-18
-28
-36
-50
-58
-62
-64
-72
-78
-88
-90
-90
-72
-56
-48
-40
-34
-26
-26
-30
-36
-42
-52
-60
-70
-94
-126
-142
-156
-176
-190
-218
-256
-280
-298
-298
-306
-308
-316
-320
-328
-324
-322
-324
-328
-330
-332
-330
-328
-326
-328
-328
-326
-328
-328
-326
-316
-314
-306
-310
-314
-324
-328
-324
-336
-368
-404
-416
-412
-424
-416
-404
-398
-402
-450
-520
-578
-606
-652
-738
-842
-916
-946
-912
-880
-880
-854
-776
-696
-624
-566
-512
-468
-420
-366
-314
-270
-228
-190
-156
-126
-96
-72
-54
-44
-30
-12
0
8
18
36
46
52
60
78
84
94
98
96
100
116
118
118
124
126
122
118
128
124
118
112
112
108
106
98
90
78
78
78
74
66
66
62
58
62
74
88
102
104
110
122
130
124
114
102
94
98
84
62
38
20
8
-22
-42
-56
-88
-108
-124
-140
-154
-164
-166
-168
-170
-178
-182
-182
-178
-184
-186
-184
-178
-180
-180
-188
-180
-178
-174
-174
-168
-160
-138
-118
-120
-134
-122
-108
-94
-96
-116
-158
-194
-230
-266
-274
-270
-256
-272
-326
-398
-436
-460
-502
-588
-680
-758
-790
-772
-744
-756
-730
-648
-564
-490
-424
-360
-306
-248
-198
-154
-112
-64
-16
22
40
66
88
108
118
130
138
156
164
164
166
188
206
206
214
224
230
240
250
248
244
250
260
258
254
250
254
252
248
246
242
234
228
222
214
208
212
216
212
216
216
208
208
218
234
248
250
260
264
268
270
266
244
232
220
204
184
164
134
124
102
84
64
32
6
-8
-20
-36
-46
-50
-50
-56
-56
-62
-68
-68
-64
-68
-74
-76
-70
-74
-78
-82
-80
-76
-72
-72
-70
-64
-44
-24
-24
-8
0
20
42
38
-8
-64
-108
-154
-184
-190
-188
-184
-220
-286
-346
-382
-412
-478
-574
-666
-720
-722
-686
-680
-680
-620
-528
-442
-362
-296
-240
-190
-132
-80
-28
20
64
108
138
168
198
224
236
242
262
276
282
296
312
328
340
350
368
392
404
412
418
434
444
462
470
478
476
482
484
488
488
492
496
494
484
480
476
472
470
464
462
460
466
460
450
436
442
446
456
470
476
478
488
492
494
484
476
468
460
448
436
408
378
374
352
332
318
290
262
244
230
220
210
210
202
200
186
184
178
178
170
166
162
154
150
150
146
146
142
138
134
136
140
142
152
142
130
110
90
78
56
16
-26
-56
-84
-116
-118
-112
-116
-142
-204
-290
-350
-384
-438
-536
-636
-704
-732
-698
-664
-648
-598
-514
-442
-378
-326
-272
-228
-178
-136
-92
-52
-16
32
64
88
110
132
152
158
164
184
190
198
210
224
232
238
246
258
258
262
266
272
274
270
274
282
284
278
270
264
262
262
260
250
248
234
228
220
214
200
190
180
172
168
168
164
154
140
146
150
156
170
178
186
194
198
186
174
158
156
150
136
120
94
64
54
34
18
0
-38
-64
-84
-98
-110
-114
-118
-124
-128
-132
-140
-140
-144
-146
-150
-146
-148
-150
-152
-146
-146
-146
-150
-144
-148
-146
-128
-112
-130
-134
-138
-140
-148
-166
-200
-238
-252
-274
-288
-288
-274
-278
-304
-376
-444
-490
-512
-572
-668
-764
-826
-844
-800
-774
-762
-700
-612
-544
-484
-428
-378
-334
-282
-232
-184
-132
-92
-56
-32
8
34
60
72
80
86
102
114
122
130
146
152
160
170
184
196
200
202
204
210
212
218
214
216
216
214
210
206
202
202
196
186
174
166
158
148
142
132
126
126
118
116
116
102
92
92
108
122
130
134
142
144
148
140
128
110
110
100
92
62
30
14
4
-22
-34
-60
-90
-106
-126
-138
-144
-146
-156
-164
-168
-170
-174
-178
-184
-176
-176
-178
-178
-178
-184
-178
-174
-172
-178
-176
-170
-164
-150
-162
-168
-170
-170
-174
-190
-234
-276
-304
-308
-322
-314
-306
-298
-320
-372
-446
-500
-532
-576
-666
-764
-844
-874
-836
-800
-790
-746
-660
-588
-520
-464
-412
-364
-306
-254
-210
-170
-126
-80
-46
-22
10
34
52
60
66
78
92
108
116
126
134
144
152
160
166
180
182
188
192
196
192
194
194
196
192
190
188
180
176
180
178
168
160
146
136
126
120
114
112
114
110
102
86
84
94
104
118
126
136
140
146
146
138
128
118
114
108
96
72
40
22
14
-16
-30
-58
-82
-108
-122
-130
-128
-142
-148
-158
-160
-166
-164
-168
-168
-170
-172
-170
-174
-178
-180
-182
-182
-176
-176
-168
-168
-156
-142
-146
-160
-174
-180
-182
-198
-242
-290
-310
-316
-328
-326
-322
-312
-320
-366
-444
-500
-530
-570
-662
-762
-844
-872
-836
-792
-786
-742
-664
-588
-522
-458
-406
-356
-302
-244
-200
-154
-110
-70
-34
-14
12
44
66
72
80
90
102
116
126
128
140
152
164
174
186
188
192
200
206
202
202
208
208
210
202
198
204
206
196
194
184
178
168
164
152
144
134
136
128
126
116
112
104
110
114
128
138
142
156
160
160
160
154
138
132
128
118
102
76
44
30
14
2
-24
-56
-84
-106
-116
-116
-122
-128
-130
-138
-138
-142
-146
-154
-154
-162
-158
-154
-148
-152
-152
-158
-154
-152
-148
-148
-144
-132
-120
-138
-142
-158
-162
-164
-190
-236
-274
-286
-294
-294
-288
-282
-280
-298
-362
-438
-484
-510
-564
-656
-756
-826
-838
-790
-762
-752
-700
-622
-546
-484
-428
-388
-348
-294
-236
-190
-140
-90
-42
-16
14
40
64
78
90
100
114
120
128
140
152
158
172
180
190
200
204
206
216
222
220
220
224
228
228
224
224
220
216
212
206
198
190
186
178
168
160
154
156
152
148
144
136
132
136
138
158
172
182
184
192
192
192
174
160
156
152
140
118
84
66
56
38
22
-10
-36
-54
-74
-86
-88
-96
-100
-106
-112
-118
-118
-122
-122
-128
-126
-122
-124
-128
-128
-128
-128
-126
-122
-120
-120
-110
-98
-100
-114
-124
-138
-138
-156
-198
-246
-268
-276
-284
-276
-268
-256
-258
-308
-386
-448
-478
-514
-594
-696
-782
-816
-788
-748
-740
-710
-636
-560
-498
-426
-368
-320
-264
-204
-160
-114
-72
-26
8
32
58
80
98
112
126
136
148
150
162
174
190
196
200
204
220
224
232
236
240
238
238
244
246
240
242
238
238
232
226
220
212
206
196
190
184
182
174
170
166
164
160
152
142
144
150
164
176
188
196
202
202
196
188
180
176
170
164
142
110
84
70
46
40
22
-10
-32
-46
-64
-72
-84
-84
-88
-90
-94
-98
-106
-108
-108
-108
-110
-112
-112
-114
-116
-116
-114
-114
-114
-106
-100
-86
-66
-76
-70
-64
-64
-80
-108
-146
-188
-206
-220
-230
-242
-248
-272
-318
-396
-460
-494
-510
-570
-656
-746
-804
-814
-772
-750
-728
-672
-596
-524
-462
-412
-366
-316
-256
-208
-166
-128
-90
-52
-36
-20
10
28
28
36
44
54
58
62
62
72
82
90
94
98
98
106
110
116
120
122
124
118
120
118
116
114
112
104
98
88
80
70
