Var1
-10
-32
-50
-54
-50
-44
-40
-32
-28
-20
-18
-12
-10
2
6
12
10
16
20
22
20
24
28
32
34
44
52
56
60
84
124
166
218
264
302
328
348
360
368
376
382
360
352
338
314
280
252
236
238
238
248
256
238
216
220
226
224
222
220
200
172
140
84
26
-16
-40
-68
-90
-112
-124
-130
-126
-128
-128
-132
-134
-136
-140
-146
-148
-150
-152
-152
-156
-160
-156
-152
-154
-152
-150
-146
-142
-134
-126
-120
-114
-104
-92
-82
-78
-72
-64
-60
-50
-42
-32
-18
2
4
2
-14
-24
-34
-34
-34
-36
-46
-54
-66
-70
-72
-72
-84
-104
-128
-138
-138
-130
-128
-128
-124
-118
-110
-110
-104
-98
-92
-94
-88
-84
-80
-80
-76
-72
-66
-66
-58
-50
-44
-42
-36
-24
6
40
84
134
182
216
230
244
258
268
274
288
276
270
256
236
208
186
168
170
172
180
176
154
136
142
150
146
144
146
130
104
72
24
-32
-72
-94
-114
-140
-164
-176
-174
-174
-180
-180
-178
-182
-188
-190
-186
-186
-188
-190
-184
-182
-180
-180
-176
-174
-168
-164
-156
-152
-146
-144
-132
-120
-110
-108
-98
-88
-80
-80
-72
-64
-56
-50
-40
-24
-18
-20
-34
-46
-52
-56
-58
-58
-60
-68
-84
-92
-90
-88
-100
-118
-134
-148
-148
-142
-132
-130
-128
-120
-110
-102
-96
-90
-82
-76
-66
-64
-54
-46
-42
-42
-34
-28
-20
-18
0
8
14
24
56
98
144
194
246
290
322
340
356
364
378
388
368
362
350
324
290
264
248
250
246
254
258
238
212
218
228
226
222
222
206
176
140
80
24
-20
-42
-70
-94
-118
-128
-136
-132
-136
-132
-136
-136
-138
-140
-144
-142
-140
-140
-144
-140
-138
-134
-128
-128
-122
-114
-108
-102
-92
-86
-80
-78
-68
-56
-50
-48
-40
-34
-30
-32
-28
-18
-16
-12
2
16
22
16
4
-10
-16
-16
-16
-12
-16
-24
-36
-40
-36
-32
-54
-70
-88
-98
-100
-88
-80
-76
-72
-64
-56
-48
-42
-38
-30
-24
-16
-14
-8
2
6
4
12
22
26
28
38
44
48
64
98
144
200
254
304
346
374
400
418
430
442
434
412
400
380
352
316
296
290
294
294
308
300
274
260
268
272
268
264
258
232
198
152
82
32
0
-28
-56
-82
-100
-106
-104
-104
-104
-106
-110
-112
-114
-114
-118
-118
-116
-114
-116
-112
-108
-104
-100
-100
-94
-88
-80
-74
-64
-56
-48
-46
-34
-26
-16
-14
0
8
14
14
24
32
42
50
62
74
72
62
48
42
40
40
38
36
24
14
4
4
10
4
-22
-42
-56
-58
-56
-48
-40
-36
-30
-22
-12
0
6
10
16
24
36
36
44
46
54
56
64
72
82
84
98
108
120
144
188
240
304
358
406
440
468
494
502
510
510
492
472
454
428
394
362
348
354
356
362
368
348
328
330
334
332
328
324
304
276
232
176
110
70
40
16
-18
-44
-54
-52
-58
-58
-60
-58
-64
-62
-64
-68
-74
-74
-74
-70
-72
-70
-66
-62
-60
-58
-52
-48
-42
-40
-30
-20
-16
-14
0
10
16
22
30
36
44
42
44
54
62
70
82
92
86
78
64
58
56
56
52
50
38
28
14
14
16
14
-16
-34
-50
-52
-50
-42
-38
-34
-28
-20
-12
0
4
10
16
24
30
30
36
42
44
46
54
64
70
74
82
88
94
118
160
216
274
330
380
422
450
476
484
490
492
472
452
432
406
376
340
326
330
328
334
342
322
302
298
302
292
294
290
270
244
204
140
74
32
6
-22
-56
-78
-90
-88
-94
-96
-94
-90
-100
-96
-100
-104
-110
-106
-104
-106
-110
-110
-106
-104
-102
-100
-96
-90
-82
-78
-70
-62
-52
-48
-38
-28
-18
-14
0
6
12
16
20
30
40
46
56
62
56
44
30
22
26
28
26
14
4
-10
-20
-14
-16
-32
-62
-82
-86
-82
-76
-66
-62
-56
-50
-42
-34
-34
-24
-18
-10
-8
2
0
10
12
18
22
26
34
42
46
56
60
78
112
162
220
286
336
384
420
452
472
478
484
470
452
426
400
366
328
302
294
294
296
306
292
270
262
266
268
264
266
254
226
194
140
72
14
-20
-46
-74
-108
-124
-124
-124
-134
-132
-132
-130
-140
-138
-140
-140
-146
-144
-142
-140
-144
-144
-138
-134
-132
-128
-122
-116
-106
-104
-96
-86
-78
-70
-60
-50
-40
-40
-32
-24
-18
-14
2
12
24
32
34
32
18
8
0
0
0
2
-16
-26
-38
-42
-44
-42
-60
-80
-104
-112
-108
-96
-98
-88
-80
-68
-64
-58
-50
-40
-36
-32
-26
-18
-10
-12
-10
0
4
6
12
22
34
36
42
58
92
130
188
254
312
364
402
434
460
470
478
468
444
426
400
372
336
308
292
292
296
312
302
280
266
272
270
264
264
262
232
202
158
88
28
-16
-44
-70
-96
-122
-128
-124
-126
-130
-128
-128
-128
-138
-140
-138
-142
-146
-142
-138
-136
-140
-138
-130
-126
-122
-118
-114
-106
-98
-98
-88
-80
-68
-62
-52
-42
-28
-30
-20
-14
0
4
12
24
38
38
40
30
16
10
4
6
8
8
-16
-22
-30
-30
-32
-38
-56
-74
-96
-94
-80
-78
-74
-70
-58
-48
-44
-38
-28
-20
-16
-10
4
6
14
12
16
24
30
32
46
54
62
60
74
100
142
186
252
318
372
410
446
476
488
492
498
476
456
434
402
368
340
320
312
312
324
332
310
286
292
298
292
286
290
272
240
202
144
78
28
0
-32
-58
-80
-96
-94
-92
-92
-100
-96
-96
-96
-110
-108
-106
-108
-116
-114
-114
-108
-112
-106
-102
-94
-92
-88
-76
-70
-62
-58
-56
-44
-32
-28
-18
0
4
6
14
18
24
28
40
50
62
62
60
52
40
30
22
28
30
24
8
0
-10
-10
-12
-20
-42
-62
-82
-80
-74
-64
-64
-56
-46
-38
-38
-32
-24
-18
-14
-10
0
2
6
6
10
14
18
20
28
38
46
44
54
84
126
174
234
296
348
386
416
446
456
460
456
438
416
396
366
332
300
286
280
282
294
296
270
256
260
268
258
256
256
238
204
166
104
40
-10
-38
-64
-92
-114
-128
-130
-128
-132
-138
-136
-136
-136
-144
-144
-142
-144
-146
-146
-142
-142
-144
-138
-134
-128
-128
-122
-116
-112
-106
-102
-94
-82
-72
-66
-56
-50
-42
-38
-26
-22
-12
-12
2
16
30
30
30
22
12
0
-10
0
0
-10
-28
-32
-38
-40
-40
-52
-70
-92
-110
-110
-102
-96
-96
-90
-80
-72
-68
-60
-48
-40
-38
-32
-26
-22
-18
-14
-8
0
8
10
18
26
32
32
44
76
120
168
230
290
344
384
418
450
468
470
472
450
430
406
376
338
304
286
280
282
292
296
272
252
258
262
254
250
252
232
196
156
96
30
-20
-46
-68
-98
-126
-140
-138
-142
-144
-148
-144
-144
-144
-150
-150
-152
-150
-156
-154
-148
-146
-152
-146
-142
-136
-136
-128
-120
-114
-108
-102
-96
-86
-74
-70
-62
-52
-46
-42
-34
-26
-18
-18
-6
14
24
24
22
10
-8
-16
-16
-12
-14
-24
-36
-46
-50
-50
-54
-68
-90
-108
-124
-116
-108
-100
-100
-88
-80
-70
-68
-58
-50
-40
-38
-32
-26
-18
-16
-16
-10
0
8
12
18
30
38
38
50
86
130
180
242
302
354
392
428
456
466
468
462
440
420
398
364
330
296
286
280
284
294
296
266
254
260
264
252
252
250
228
190
144
80
18
-30
-58
-84
-112
-140
-148
-146
-146
-148
-154
-150
-148
-152
-158
-158
-158
-158
-162
-160
-152
-150
-152
-146
-140
-136
-134
-126
-116
-110
-106
-102
-92
-86
-74
-68
-60
-52
-44
-40
-34
-30
-20
-20
-8
8
20
16
14
2
-12
-22
-22
-18
-20
-30
-44
-52
-58
-54
-56
-74
-94
-112
-122
-120
-108
-100
-100
-92
-80
-72
-70
-60
-48
-38
-36
-32
-24
-20
-18
-16
-12
-8
6
6
12
18
24
22
32
62
108
156
222
284
340
376
412
444
456
462
456
434
414
388
354
316
286
274
270
276
290
288
260
248
256
260
248
248
248
224
190
142
78
18
-26
-52
-80
-112
-136
-146
-144
-144
-144
-154
-152
-154
-158
-168
-168
-168
-166
-172
-172
-168
-162
-164
-156
-150
-142
-140
-132
-124
-116
-110
-104
-94
-84
-74
-70
-62
-56
-52
-52
-44
-36
-30
-30
-22
-10
6
6
2
-10
-20
-30
-32
-26
-28
-38
-50
-58
-66
-60
-64
-78
-98
-116
-132
-126
-116
-110
-112
-100
-90
-80
-78
-70
-62
-50
-48
-44
-36
-32
-30
-26
-20
-14
0
2
8
18
24
26
40
72
116
166
226
290
342
376
410
440
450
452
448
426
406
384
352
316
284
272
264
270
280
286
262
246
252
258
244
244
244
220
182
138
72
12
-38
-66
-88
-116
-144
-152
-148
-148
-148
-152
-150
-152
-154
-160
-160
-158
-160
-166
-166
-162
-160
-164
-160
-154
-150
-148
-142
-132
-126
-120
-116
-108
-104
-92
-88
-80
-70
-58
-58
-50
-46
-40
-40
-30
-18
0
4
6
0
-16
-32
-36
-36
-34
-40
-52
-64
-70
-76
-76
-80
-96
-120
-142
-148
-142
-132
-130
-124
-114
-104
-102
-96
-88
-80
-78
-72
-62
-58
-56
-56
-50
-48
-42
-40
-32
-24
-14
-14
-8
14
52
96
154
216
274
320
354
390
410
412
418
404
382
356
334
300
264
238
230
228
240
250
236
212
212
222
222
216
220
210
176
142
88
20
-42
-74
-100
-128
-160
-182
-182
-180
-184
-192
-190
-190
-188
-196
-194
-194
-192
-196
-192
-190
-186
-188
-182
-176
-170
-168
-160
-152
-144
-138
-132
-124
-116
-108
-106
-98
-90
-78
-76
-72
-66
-64
-60
-52
-40
-32
-24
-18
-20
-30
-46
-50
-50
-46
-48
-54
-64
-74
-80
-86
-82
-94
-114
-140
-150
-148
-140
-140
-136
-128
-116
-112
-106
-100
-92
-92
-84
-78
-72
-66
-64
-62
-60
-52
-50
-44
-36
-28
-26
-20
-8
28
68
122
186
250
300
342
378
406
412
420
424
400
376
354
326
290
256
232
232
234
246
244
226
208
216
216
212
210
212
184
158
112
48
-26
-68
-96
-120
-150
-176
-186
-184
-186
-196
-196
-196
-194
-200
-200
-200
-198
-206
-208
-204
-202
-206
-202
-194
-188
-188
-182
-174
-172
-168
-162
-152
-146
-136
-132
-122
-114
-106
-106
-100
-94
-90
-90
-80
-74
-62
-54
-46
-46
-52
-68
-76
-80
-76
-78
-82
-92
-98
-108
-114
-110
-116
-136
-160
-176
-176
-166
-162
-158
-150
-142
-140
-130
-122
-118
-116
-110
-102
-100
-98
-96
-88
-86
-80
-78
-70
-64
-54
-50
-44
-34
-12
24
74
130
194
238
282
306
332
342
348
358
344
320
302
278
246
208
184
182
184
192
198
184
160
162
164
164
160
164
142
116
82
30
-42
-90
-114
-138
-168
-196
-208
-210
-214
-218
-220
-218
-218
-226
-226
-228
-226
-234
-232
-228
-224
-228
-224
-220
-216
-216
-210
-206
-200
-200
-192
-182
-174
-166
-160
-148
-138
-128
-124
-120
-112
-108
-106
-98
-88
-76
-68
-62
-64
-74
-90
-94
-96
-96
-96
-98
-106
-116
-122
-124
-120
-130
-148
-172
-184
-182
-172
-174
-168
-158
-148
-146
-136
-130
-122
-122
-114
-108
-102
-100
-96
-92
-88
-84
-82
-76
-66
-60
-56
-48
-36
-10
26
72
122
170
204
230
246
260
262
272
288
274
258
248
232
202
172
148
146
148
156
152
134
112
112
112
110
102
108
88
62
30
-24
-86
-128
-152
-176
-206
-228
-242
-244
-250
-252
-252
-248
-250
-256
-256
-256
-254
-260
-262
-260
-256
-260
-256
-252
-248
-248
-242
-232
-228
-228
-220
-210
-202
-196
-190
-180
-170
-160
-162
-158
-154
-144
-140
-134
-122
-106
-106
-106
-116
-126
-140
-146
-144
-144
-152
-160
-166
-174
-178
-178
-184
-198
-214
-234
-234
-222
-216
-214
-206
-194
-186
-184
-176
-166
-156
-154
-146
-138
-132
-128
-122
-116
-112
-108
-104
-96
-88
-78
-78
-68
-50
-16
24
74
124
170
198
218
236
248
248
270
274
262
252
238
214
184
154
142
142
144
156
142
118
112
122
124
120
124
120
90
62
20
-44
-104
-130
-154
-178
-208
-226
-232
-232
-236
-242
-240
-242
-244
-250
-248
-244
-242
-248
-246
-242
-234
-236
-232
-228
-218
-216
-210
-202
-196
-190
-180
-170
-164
-158
-148
-140
-134
-128
-124
-122
-118
-118
-120
-114
-106
-96
-88
-80
-78
-84
-100
-108
-110
-108
-110
-110
-114
-120
-128
-134
-124
-130
-146
-170
-184
-188
-180
-180
-174
-168
-160
-158
-152
-146
-140
-140
-134
-128
-124
-128
-124
-120
-116
-116
-114
-108
-102
-94
-88
-82
-74
-54
-22
28
78
136
178
216
242
266
274
286
300
290
272
262
242
210
180
156
156
158
170
174
164
138
136
138
140
136
142
124
96
64
14
-56
-100
-128
-152
-182
-206
-222
-224
-222
-226
-226
-226
-228
-234
-236
-236
-236
-240
-242
-242
-238
-240
-240
-234
-230
-232
-226
-214
-208
-206
-196
-184
-178
-170
-166
-156
-148
-140
-140
-134
-130
-124
-128
-124
-118
-114
-114
-104
-94
-90
-98
-106
-116
-122
-128
-122
-116
-120
-132
-140
-144
-140
-134
-148
-170
-184
-196
-196
