Var1
24
21
19
14
9
2
-5
-10
-14
-15
-14
-12
2
21
42
65
90
118
148
179
215
250
283
309
320
306
259
173
75
-26
-133
-231
-323
-407
-473
-521
-555
-571
-569
-554
-526
-487
-440
-391
-347
-297
-253
-210
-171
-143
-122
-109
-101
-96
-89
-80
-64
-39
-10
23
61
100
144
191
228
255
275
283
287
290
293
296
300
304
308
312
315
320
326
330
330
328
321
316
312
308
299
293
281
268
254
239
225
212
198
189
178
165
151
140
125
113
101
89
80
69
62
52
44
36
28
18
8
0
-11
-18
-25
-32
-37
-43
-47
-48
-53
-58
-63
-67
-72
-74
-77
-79
-81
-82
-85
-86
-87
-86
-88
-86
-86
-83
-84
-84
-84
-82
-82
-78
-80
-83
-87
-88
-86
-85
-84
-84
-86
-87
-87
-89
-90
-90
-89
-91
-89
-89
-89
-90
-90
-89
-88
-86
-85
-81
-77
-74
-70
-66
-65
-63
-63
-65
-69
-69
-70
-65
-62
-58
-58
-56
-53
-51
-51
-50
-50
-48
-47
-48
-50
-51
-52
-50
-48
-47
-47
-45
-42
-40
-36
-38
-40
-41
-38
-35
-31
-31
-34
-38
-42
-44
-45
-44
-42
-37
-35
-36
-36
-35
-35
-34
-31
-29
-29
-24
-22
-20
-25
-27
-31
-31
-29
-27
-27
-27
-30
-30
-32
-31
-27
-22
-20
-20
-19
-18
-17
-17
-14
-14
-13
-13
-11
-7
-6
-9
-11
-11
-9
-8
-6
-6
-6
-7
-6
-5
-5
-6
-6
-5
-6
-7
-8
-9
-12
-11
-10
-8
-8
-8
-9
-9
-8
-7
-7
-6
-6
-5
-6
-3
1
3
3
5
5
2
0
-5
-8
-9
-9
-9
-9
-8
-8
-7
-7
-6
-7
-8
-9
-9
-9
-12
-12
-13
-14
-14
-14
-14
-17
-17
-19
-18
-19
-19
-20
-22
-24
-23
-25
-26
-26
-24
-24
-20
-18
-17
-18
-18
-20
-23
-23
-20
-15
-11
-10
-5
2
5
14
23
26
31
32
29
31
29
23
17
19
29
45
69
100
137
176
214
254
294
338
389
440
482
515
526
511
460
369
256
138
31
-60
-133
-191
-235
-266
-283
-299
-311
-319
-316
-305
-285
-267
-242
-215
-182
-145
-110
-66
-24
21
60
97
122
144
158
168
177
189
198
203
199
192
182
180
179
185
192
197
200
203
206
204
202
196
190
182
173
163
158
156
157
156
156
155
151
149
147
144
141
138
135
132
127
122
118
114
109
104
99
93
89
83
78
74
69
64
56
52
44
38
32
33
38
47
63
89
120
155
192
221
243
254
250
219
164
86
0
-87
-155
-209
-251
-290
-319
-344
-364
-382
-392
-397
-394
-384
-371
-361
-355
-355
-351
-341
-323
-296
-263
-227
-190
-155
-125
-101
-80
-63
-48
-32
-12
14
41
71
99
128
157
189
227
260
285
307
323
330
335
336
336
332
329
320
314
305
299
293
290
285
282
278
276
272
270
266
259
251
242
230
218
209
197
188
178
164
147
131
112
98
83
71
57
45
32
23
13
5
-6
-14
-23
-29
-35
-43
-49
-54
-58
-63
-65
-69
-72
-77
-80
-87
-90
-92
-92
-95
-97
-99
-100
-101
-100
-100
-101
-104
-103
-104
-104
-103
-101
-99
-98
-98
-96
-96
-96
-93
-92
-89
-86
-84
-84
-84
-83
-83
-82
-80
-78
-77
-77
-76
-74
-74
-75
-75
-73
-73
-72
-71
-68
-66
-63
-65
-66
-66
-65
-64
-61
-59
-59
-59
-58
-57
-55
-53
-50
-48
-47
-48
-48
-47
-48
-47
-47
-45
-43
-41
-41
-41
-40
-38
-37
-35
-34
-33
-34
-33
-33
-34
-35
-35
-35
-35
-35
-35
-34
-35
-34
-34
-32
-32
-31
-32
-32
-32
-30
-32
-29
-28
-26
-25
-23
-21
-20
-20
-18
-17
-18
-19
-18
-17
-15
-14
-13
-11
-11
-8
-8
-6
-5
0
1
2
2
4
4
5
6
7
7
8
8
8
8
8
8
8
7
5
5
3
4
2
2
2
4
2
4
5
6
5
7
8
10
9
11
11
11
10
11
11
11
10
10
10
8
8
8
7
5
5
5
5
6
9
11
13
14
11
8
6
7
7
8
8
11
12
15
15
16
15
15
12
11
12
14
14
15
17
19
18
20
21
23
24
23
18
15
14
18
21
20
17
15
15
17
21
21
20
18
15
11
8
6
8
10
14
18
23
28
35
39
37
29
23
20
14
9
9
19
35
59
84
114
146
183
216
253
293
341
389
437
470
491
485
446
370
263
142
26
-76
-155
-211
-248
-270
-281
-284
-290
-293
-293
-287
-281
-272
-263
-251
-236
-215
-186
-149
-107
-59
-11
35
74
107
133
149
164
173
181
186
192
196
200
203
204
204
206
206
207
206
205
204
203
200
198
194
192
188
183
179
175
170
164
159
152
147
141
137
130
124
116
110
105
101
98
94
89
83
74
70
67
63
59
55
50
44
40
36
33
29
26
20
16
11
8
2
0
-7
-10
-14
-17
-22
-25
-30
-32
-35
-38
-42
-44
-46
-48
-51
-54
-57
-60
-62
-64
-66
-69
-69
-70
-70
-69
-69
-69
-68
-66
-65
-65
-64
-61
-60
-59
-56
-54
-54
-54
-56
-58
-59
-57
-58
-57
-57
-55
-56
-54
-56
-57
-60
-60
-57
-52
-50
-48
-48
-47
-45
-41
-40
-43
-46
-47
-48
-47
-46
-45
-43
-38
-34
-35
-37
-40
-42
-41
-33
-21
-13
-11
-14
-18
-22
-23
-23
-25
-31
-32
-29
-18
-8
5
11
11
5
-5
-11
-12
-9
1
5
2
-8
-14
-19
-21
-22
-22
-25
-26
-28
-31
-33
-30
-25
-20
-16
-15
-14
-14
-15
-18
-17
-14
-10
-8
-6
-5
-5
-5
-5
-6
-7
-7
-5
0
0
0
0
0
0
0
-3
0
0
0
0
0
-5
-6
-11
-14
-18
-23
-29
-27
-21
-11
8
29
54
86
119
156
198
244
293
345
398
448
492
524
535
507
435
326
199
69
-48
-140
-206
-250
-278
-296
-307
-312
-311
-304
-296
-288
-278
-263
-244
-216
-183
-140
-95
-48
-8
30
61
89
110
128
140
150
156
161
164
167
169
170
170
169
168
167
167
166
166
165
165
162
160
157
154
149
145
140
135
131
128
125
121
116
111
107
101
95
90
86
81
77
71
67
61
57
53
48
42
41
36
34
31
28
20
17
11
8
5
2
-3
-7
-9
-12
-15
-17
-19
-21
-23
-25
-27
-32
-35
-40
-42
-46
-47
-47
-48
-48
-48
-46
-46
-47
-48
-50
-52
-52
-51
-48
-47
-44
-42
-41
-40
-39
-39
-39
-39
-38
-36
-33
-33
-32
-32
-30
-29
-27
-28
-26
-26
-26
-26
-27
-26
-26
-26
-26
-25
-26
-25
-27
-29
-29
-29
-29
-28
-26
-24
-23
-20
-15
-10
-6
-3
-3
-6
-11
-14
-16
-17
-16
-14
-9
-4
5
10
15
17
19
17
14
11
8
3
2
2
2
2
0
-5
-8
-11
-11
-11
-11
-12
-15
-16
-15
-12
-10
-6
-3
0
0
-4
-5
-6
-7
-5
-5
-3
-3
0
2
0
0
1
2
2
3
2
1
0
0
-5
-5
-5
-3
0
1
2
4
3
2
0
-5
-11
-15
-15
-10
2
19
41
64
93
125
161
203
251
304
362
419
470
510
542
558
544
482
382
254
116
-14
-118
-194
-248
-279
-296
-307
-315
-315
-312
-307
-300
-291
-281
-267
-248
-220
-184
-137
-88
-41
2
38
68
91
106
116
124
131
138
146
152
154
155
155
156
158
159
160
161
162
164
167
168
168
165
160
153
147
142
140
141
143
140
134
125
118
112
108
104
101
96
92
86
79
72
66
59
53
47
41
31
23
15
8
2
0
-5
-8
-12
-15
-19
-24
-28
-30
-32
-35
-35
-37
-38
-39
-41
-44
-46
-48
-49
-50
-51
-51
-53
-54
-53
-52
-53
-52
-51
-50
-50
-47
-44
-41
-36
-29
-21
-11
-4
-4
-8
-17
-27
-35
-46
-51
-54
-55
-55
-53
-49
-43
-38
-33
-30
-31
-33
-38
-43
-48
-52
-54
-52
-49
-45
-44
-44
-47
-48
-52
-53
-54
-54
-53
-49
-44
-41
-38
-35
-31
-31
-31
-32
-31
-32
-32
-35
-35
-35
-35
-36
-36
-36
-32
-31
-28
-27
-29
-33
-33
-32
-30
-31
-32
-32
-33
-32
-30
-28
-26
-22
-21
-22
-23
-25
-27
-27
-24
-19
-14
-11
-9
-8
-5
2
4
-3
-14
-24
-32
-35
-32
-26
-19
-13
-8
-5
2
5
8
9
8
2
-5
-9
-11
-12
-11
-10
-5
1
1
-5
-6
-3
5
10
11
10
8
8
8
5
0
-8
-14
-12
-7
1
4
3
2
2
0
-4
-6
-10
-11
-11
-8
-8
-8
-7
-5
-5
-4
-5
-6
-7
-6
-6
-6
-5
-6
-8
-7
-6
-6
-7
-6
-6
-7
-8
-8
-7
-8
-10
-12
-13
-14
-14
-15
-16
-16
-14
-15
-14
-13
-12
-11
-10
-8
-5
-5
-3
0
2
3
6
8
8
6
4
2
2
3
3
4
4
5
6
8
9
11
8
9
10
11
11
12
14
14
14
15
15
15
15
14
15
15
16
14
13
13
14
12
13
14
16
17
20
22
23
24
26
27
26
26
28
29
29
29
29
30
30
32
28
27
28
34
45
71
105
145
182
221
262
311
368
425
474
512
535
536
504
430
320
192
71
-35
-116
-177
-215
-234
-242
-251
-258
-262
-259
-250
-236
-224
-212
-199
-181
-158
-126
-86
-41
8
50
86
116
138
154
165
172
179
182
186
189
192
194
197
198
201
203
206
204
205
203
203
200
198
197
194
192
191
188
185
181
175
170
164
161
155
152
148
145
140
135
130
126
122
118
114
107
101
95
90
85
79
74
71
65
63
57
52
45
40
32
29
23
18
11
8
3
0
-6
-9
-13
-18
-24
-32
-41
-50
-54
-55
-52
-49
-47
-46
-45
-44
-43
-44
-44
-46
-46
-48
-48
-47
-47
-48
-47
-47
-47
-47
-47
-46
-47
-47
-47
-45
-44
-43
-43
-42
-42
-41
-42
-42
-42
-41
-41
-41
-41
-41
-41
-38
-38
-38
-40
-39
-39
-40
-39
-40
-38
-38
-36
-35
-35
-36
-37
-39
-39
-38
-36
-36
-35
-36
-37
-38
-36
-35
-34
-33
-33
-32
-34
-35
-38
-37
-38
-36
-36
-36
-36
-37
-38
-38
-40
-41
-44
-45
-48
-50
-54
-54
-54
-53
-53
-50
-50
-50
-51
-51
-49
-47
-44
-42
-38
-34
-29
-25
-22
-23
-24
-29
-29
-30
-30
-30
-29
-26
-24
-23
-21
-20
-20
-19
-19
-18
-18
-17
-18
-19
-21
-22
-22
-17
-9
5
14
20
19
17
8
0
-11
-18
-24
-26
-26
-24
-22
-17
-9
0
7
11
13
14
11
5
0
-6
-8
-8
-5
1
2
2
-3
-9
-17
-21
-21
-18
-17
-17
-15
-11
-7
-4
-3
0
2
4
4
5
5
5
3
2
0
-2
-5
-3
1
2
0
-4
-7
-10
-11
-11
-9
-11
-15
-21
-23
-20
-5
13
36
65
102
141
187
237
293
355
422
487
542
584
611
614
574
486
364
224
86
-33
-125
-190
-233
-260
-278
-287
-293
-288
-282
-272
-263
-250
-236
-215
-189
-154
-110
-60
-14
30
65
93
114
129
140
147
152
156
161
164
167
168
170
171
172
170
170
169
169
167
163
161
161
161
161
161
158
155
153
152
149
145
140
140
137
134
131
127
119
115
109
104
98
93
89
84
78
73
67
62
56
50
45
39
35
29
23
19
16
11
7
3
1
-5
-8
-11
-14
-19
-23
-27
-32
-37
-38
-38
-41
-42
-44
-46
-49
-50
-54
-55
-56
-57
-60
-60
-62
-59
-57
-52
-48
-47
-47
-47
-49
-52
-53
-51
-45
-38
-35
-36
-44
-53
-56
-59
-58
-54
-49
-46
-42
-39
-35
-35
-35
-36
-39
-41
-38
-35
-38
-42
-42
-38
-34
-29
-23
-17
-17
-20
-26
-34
-40
-41
-44
-45
-45
-45
-45
-38
-30
-19
-11
-5
-5
-7
-11
-13
-14
-11
-10
-14
-20
-25
-26
-24
-23
-23
-23
-22
-20
-19
-19
-23
-25
-24
-23
-20
-17
-16
-17
-19
-18
-16
-14
-12
-10
-4
4
11
16
21
23
23
18
12
6
4
2
4
5
7
5
4
0
-5
-8
-9
-9
-9
-9
-6
-4
0
1
2
2
2
2
-3
-5
-7
-8
-10
-11
-11
-12
-14
-14
-14
-14
-15
-16
-17
-17
-17
-17
-16
-17
-19
-23
-29
-35
-38
-35
-25
-9
13
37
69
105
144
187
235
287
342
395
449
496
533
552
539
481
381
255
122
-6
-109
-185
-236
-266
-284
-296
-304
-303
-296
-286
-278
-265
-245
-218
-185
-148
-107
-66
-30
3
32
55
77
95
110
119
128
132
137
140
144
145
146
148
149
149
151
152
155
155
156
157
155
154
153
153
152
152
149
146
142
137
131
127
123
121
116
113
108
104
98
93
89
83
77
74
74
75
81
89
100
115
139
167
194
219
242
260
281
306
332
349
357
350
326
278
210
124
26
-83
-188
-281
-359
-414
-445
-452
-442
-417
-385
-350
-320
-296
-283
-277
-278
-281
-286
-286
-278
-261
-238
-209
-184
-162
-144
-129
-116
-103
-88
-68
-44
-21
4
26
52
82
120
162
206
245
275
293
305
311
314
312
313
312
312
309
308
305
302
299
296
293
284
276
268
259
251
244
233
223
211
200
188
177
166
155
141
129
118
107
94
82
71
59
48
38
31
23
15
8
4
0
-5
-11
-17
-24
-29
-37
-40
-44
-45
-48
-49
-50
-53
-55
-56
-56
-58
-62
-63
-63
-63
-63
-62
-65
-68
-69
-72
-72
-71
-68
-67
-66
-65
-65
-66
-65
-65
-66
-67
-66
-67
-68
-70
-73
-74
-77
-80
-80
-80
-80
-79
-80
-82
-83
-83
-83
-81
-81
-80
-81
-79
-78
-77
-79
-79
-80
-81
-83
-83
-83
-83
-83
-81
-81
-80
-79
-80
-81
-81
-80
-80
-77
-76
-75
-75
-74
-73
-73
-73
-72
-70
-68
-66
-66
-63
-63
-62
-62
-59
-59
-56
-56
-56
-56
-55
-56
-53
-50
-44
-41
-38
-38
-38
-38
-37
-35
-32
-32
-31
-29
-29
-29
-27
-25
-24
-22
-24
-26
-28
-29
-30
-29
-29
-29
-30
-29
-28
-27
-27
-28
-29
-29
-29
-25
-19
-14
-7
3
12
21
29
29
26
17
11
1
-5
-6
-5
-5
-5
-5
0
5
14
23
29
29
27
23
17
11
8
9
10
12
13
13
10
5
-5
-11
-14
-14
-14
-13
-10
-7
0
2
4
5
4
5
8
7
5
5
5
3
5
5
7
10
14
13
13
11
11
8
8
8
12
13
15
16
15
13
13
14
14
16
19
18
14
7
-4
-8
-8
3
17
36
63
99
140
185
231
278
330
387
449
503
544
566
556
499
404
281
148
23
-80
-158
-211
-249
-275
-296
-304
-302
-294
-289
-281
-273
-263
-252
-235
-209
-175
-131
-78
-28
21
65
101
126
143
156
164
171
175
175
169
165
166
170
171
174
176
176
177
181
182
181
182
182
183
182
180
179
177
174
173
170
167
164
161
155
149
144
141
137
133
128
123
119
117
113
106
98
92
88
83
77
71
65
59
51
42
35
34
36
41
50
67
91
121
157
191
217
233
244
241
211
157
80
-8
-90
-159
-212
-253
-287
-311
-331
-345
-358
-366
-374
-374
-370
-363
-359
-356
-357
-356
-350
-333
-307
-274
-236
-198
-166
-143
-126
-114
-104
-92
-75
-57
-38
-15
11
34
59
88
125
168
211
247
272
283
285
282
278
273
270
273
277
281
287
290
290
290
287
282
276
273
266
261
254
245
229
212
194
180
167
157
144
134
126
122
116
107
89
74
61
47
40
34
30
29
28
23
18
11
1
-12
-19
-23
-24
-29
-36
-46
-53
-56
-55
-52
-54
-57
-59
-60
-65
-66
-65
-59
-55
-53
-65
-80
-94
-101
-104
-100
-96
-89
-87
-84
-82
-79
-74
-67
-66
-73
-83
-91
-95
-95
-89
-89
-90
-90
-89
-89
-84
-80
-75
-73
-68
-64
-62
-60
-58
-56
-55
-56
-56
-57
-58
-57
-55
-52
-50
-47
-47
-46
-46
-44
-44
-43
-43
-41
-41
-40
-39
-40
-41
-41
-42
-41
-43
-42
-41
-41
-41
-41
-42
-44
-43
-43
-41
-39
-35
-34
-32
-30
-29
-28
-26
-23
-21
-19
-16
-14
-13
-13
-12
-12
-13
-13
-12
-11
-9
-8
-7
-6
-5
0
0
2
2
3
4
5
6
7
5
5
4
3
2
2
3
2
2
2
5
5
5
5
5
5
7
8
9
11
13
14
16
17
17
15
15
16
16
16
17
17
16
15
16
18
18
20
19
20
23
28
32
38
39
37
29
22
16
13
11
9
6
3
2
4
6
8
6
5
2
-6
-10
-15
-18
-20
-17
-17
-17
-18
-21
-25
-28
-29
-30
-32
-32
-32
-32
-31
-29
-26
-24
-24
-23
-21
-20
-17
-15
-12
-11
-8
-10
-9
-9
-7
-6
-3
1
3
5
8
10
11
11
11
11
11
11
13
14
14
12
8
5
5
9
17
32
56
89
130
174
217
263
314
374
433
489
534
566
579
558
491
384
257
123
4
-96
-170
-224
-260
-287
-305
-317
-318
-314
-305
-294
-279
-260
-233
-200
-162
-122
-80
-39
1
35
65
90
113
132
146
155
161
167
170
174
177
180
182
184
185
185
183
182
182
181
180
179
179
179
176
176
176
173
172
168
163
158
156
153
152
148
144
138
134
129
126
122
120
116
110
104
99
95
92
89
86
83
78
75
71
67
62
56
50
45
41
38
32
26
22
17
11
6
2
-5
-9
-13
-16
-19
-21
-24
-27
-32
-35
-38
-38
-38
-35
-37
-37
-41
-44
-48
-50
-50
-50
-52
-51
-51
-51
-51
-50
-50
-48
-49
-48
-47
-46
-44
-44
-43
-44
-44
-47
-48
-50
-50
-51
-50
-48
-45
-42
-38
-32
-29
-28
-28
-29
-31
-32
-32
-30
-29
-25
-20
-14
-10
-4
0
2
0
-5
-11
-17
-22
-22
-23
-20
-18
-19
-23
-24
-27
-30
-33
-34
-33
-32
-30
-29
-26
-24
-22
-23
-25
-27
-29
-32
-33
-34
-34
-35
-34
-35
-35
-36
-37
-38
-40
-42
-41
-40
-39
-39
-40
-41
-42
-41
-43
-42
-42
-41
-42
-41
-42
-42
-43
-41
-40
-38
-38
-37
-38
-41
-46
-47
-41
-34
-20
0
23
53
92
130
174
223
278
336
395
450
498
533
553
544
491
398
278
146
14
-101
-186
-245
-283
-305
-319
-326
-326
-317
-307
-296
-284
-265
-241
-209
-176
-137
-98
-57
-20
17
47
76
96
108
114
119
125
132
138
143
144
147
150
151
152
152
152
151
151
152
154
155
156
155
152
149
145
141
137
133
131
131
129
128
125
125
119
113
101
99
95
93
88
83
76
75
71
65
56
51
44
41
37
32
26
20
12
2
-6
-10
-11
-14
-19
-31
-43
-51
-56
-61
-64
-64
-63
-62
-60
-60
-62
-62
-61
-58
-56
-49
-41
-35
-35
-40
-47
-54
-57
-56
-56
-54
-53
-48
-45
-38
-35
-32
-33
-35
-41
-46
-51
-54
-57
-59
-60
-58
-56
-58
-63
-67
-69
-67
-65
-64
-62
-59
-55
-51
-47
-44
-42
-41
-38
-36
-35
-34
-32
-31
-29
-27
-25
-23
-22
-21
-20
-20
-17
-14
-14
-11
-8
-4
0
3
4
6
5
8
7
6
2
1
-3
-4
-4
1
5
6
6
5
4
2
2
-2
-4
-5
-3
-3
-4
-5
-7
-11
-12
-14
-16
-20
-22
-21
-20
-18
-15
-14
-16
-14
-14
-14
-17
-19
-23
-27
-28
-26
-26
-20
-17
-14
-12
-11
-11
-9
-8
-7
-7
-8
-11
-15
-18
-21
-24
-25
-23
-19
-13
-8
-5
-5
-8
-17
-21
-23
-20
-17
-15
-16
-19
-24
-24
-25
-26
-29
-32
-31
-29
-22
-15
-11
-12
-13
-19
-23
-29
-32
-35
-34
-35
-35
-35
-31
-26
-20
-15
-8
0
5
5
3
-5
-11
-18
-24
-26
-25
-21
-17
-13
-7
-2
3
9
17
27
36
44
48
46
37
29
21
15
11
11
13
13
14
17
23
30
37
40
41
38
34
26
21
16
15
13
14
14
14
11
8
4
0
-5
-5
0
0
3
5
8
10
11
11
9
10
14
23
41
68
106
144
184
222
267
320
381
439
488
524
547
546
506
423
306
177
53
-53
-139
-200
-244
-270
-288
-300
-310
-311
-308
-296
-283
-269
-254
-233
-209
-178
-137
-89
-39
11
55
92
122
142
157
165
173
179
183
185
188
190
191
191
193
194
195
195
194
194
191
188
186
185
182
179
177
176
173
173
170
167
162
159
153
149
145
142
137
132
128
124
117
113
106
98
89
83
76
69
63
59
56
53
50
46
41
37
32
26
22
17
11
5
-3
-9
-14
-18
-22
-25
-30
-35
-38
-38
-41
-43
-46
-48
-53
-56
-59
-59
-58
-56
-56
-54
-56
-57
-62
-63
-65
-66
-68
-68
-68
-68
-68
-66
-64
-62
-60
-57
-56
-56
-55
-57
-59
-59
-56
-54
-51
-48
-47
-47
-47
-45
-44
-44
-44
-45
-46
-47
-46
-44
-45
-45
-44
-41
-36
-29
-24
-20
-20
-21
-26
-30
-32
-33
-35
-35
-35
-32
-28
-21
-15
-12
-14
-17
-21
-26
-32
-36
-38
-38
-36
-35
-34
-36
-40
-46
-48
-49
-47
-46
-43
-41
-39
-38
-35
-31
-28
-27
-25
-24
-24
-24
-23
-22
-23
-21
-23
-23
-22
-19
-19
-17
-17
-17
-19
-19
-18
-17
-16
-12
-11
-8
-6
-3
1
1
2
2
3
4
5
7
11
17
20
17
13
8
7
7
10
11
12
11
9
8
5
4
4
5
4
3
4
5
5
6
6
8
9
11
8
8
6
8
8
12
15
19
20
22
19
16
12
12
14
14
14
17
18
20
21
21
21
21
20
17
15
14
13
11
11
11
12
12
13
13
13
14
17
15
10
3
-4
-5
-6
-4
1
4
5
6
5
5
3
3
2
4
4
5
2
2
4
6
6
8
10
9
8
8
8
8
11
12
13
13
14
11
11
11
9
6
6
8
15
29
53
85
121
158
196
239
287
338
389
434
469
495
501
476
406
300
176
56
-50
-131
-191
-227
-247
-253
-257
-262
-266
-266
-261
-251
-242
-233
-221
-207
-191
-170
-140
-104
-59
-10
43
87
122
147
162
171
179
185
188
188
191
191
193
194
197
197
196
194
192
191
190
191
189
190
189
188
184
182
176
173
168
166
164
162
158
153
148
141
134
129
123
118
110
101
93
84
79
75
72
68
62
54
48
43
40
37
35
31
26
18
9
0
-11
-15
-15
-14
-13
-14
-20
-29
-41
-47
-55
-63
-71
-74
-77
-76
-75
-73
-72
-72
-71
-70
-72
-74
-80
-86
-95
-96
-93
-88
-84
-78
-72
-68
-63
-65
-71
-77
-77
-77
-73
-70
-70
-75
-78
-75
-69
-61
-56
-56
-59
-63
-61
-55
-48
-45
-43
-41
-41
-42
-44
-42
-38
-33
-33
-35
-40
-43
-43
-38
-36
-32
-32
-30
-29
-29
-29
-27
-26
-25
-24
-23
-23
-23
-24
-24
-23
-23
-23
-24
-24
-23
-22
-21
-20
-18
-17
-17
-17
-17
-18
-19
-18
-17
-18
-19
-20
-19
-20
-20
-19
-18
-17
-14
-14
-14
-14
-14
-13
-10
-8
-4
-3
3
10
17
21
21
13
0
-17
-28
-33
-36
-35
-32
-27
-20
-11
-3
5
11
15
14
12
9
5
1
-2
-5
-7
-11
-12
-16
-20
-24
-26
-26
-26
-22
-19
-13
-8
-3
1
5
6
10
12
17
20
24
24
26
26
26
26
27
28
29
30
32
35
35
35
36
36
39
44
44
47
47
47
44
42
44
51
60
75
94
118
149
185
224
269
317
371
427
484
539
584
619
632
610
537
424
286
142
8
-100
-177
-227
-259
-278
-289
-293
-291
-282
-274
-268
-263
-255
-242
-226
-200
-165
-120
-73
-26
17
54
84
108
123
135
142
146
149
155
158
161
162
164
167
167
167
168
170
168
168
167
165
161
159
155
155
155
155
153
152
149
146
141
138
135
133
128
125
120
115
110
106
101
96
91
86
81
76
71
63
56
50
44
38
35
30
25
21
17
12
7
1
-6
-11
-15
-20
-24
-27
-32
-37
-43
-46
-48
-47
-48
-47
-47
-45
-46
-47
-53
-60
-71
-77
-81
-81
-80
-77
-73
-67
-62
-54
-47
-44
-43
-45
-48
-54
-57
-62
-62
-60
-57
-57
-58
-61
-65
-68
-69
-69
-70
-71
-70
-68
-67
-65
-63
-62
-62
-64
-65
-64
-63
-60
-60
-59
-58
-55
-53
-51
-50
-48
-49
-47
-45
-43
-41
-37
-35
-33
-32
-31
-29
-29
-28
-28
-27
-24
-22
-21
-19
-17
-17
-16
-14
-14
-11
-11
-9
-8
-8
-9
-8
-8
-9
-11
-11
-9
-11
-11
-11
-11
-11
-7
-8
-7
-8
-9
-11
-10
-11
-9
-9
-5
-3
0
0
0
0
0
-3
0
2
2
2
3
5
5
6
5
5
5
4
2
2
1
1
-4
-6
-7
-7
-8
-7
-6
-7
-8
-8
-8
-11
-11
-11
-11
-11
-8
-8
-6
-5
1
2
5
5
5
2
2
4
7
6
5
2
2
1
2
2
2
0
0
1
2
4
2
2
1
0
-4
-3
-3
-3
0
2
2
3
3
5
6
7
8
10
12
12
12
10
9
9
11
11
15
19
26
30
35
36
37
35
33
30
29
28
30
33
37
38
41
43
47
50
52
53
53
51
45
41
37
37
39
44
45
44
41
36
30
23
18
23
34
47
67
96
134
170
208
246
293
348
409
464
509
540
558
548
500
408
290
164
47
-51
-127
-184
-222
-248
-264
-279
-290
-296
-296
-291
-285
-279
-271
-260
-248
-230
-202
-163
-116
-66
-17
30
65
95
116
131
140
149
155
160
162
165
168
171
173
177
180
180
181
180
180
179
179
176
176
174
174
173
172
170
168
165
163
160
155
149
142
135
128
122
115
109
101
94
87
80
74
69
62
56
50
43
36
31
26
23
17
14
12
9
6
4
0
-8
-12
-17
-20
-24
-26
-31
-35
-38
-38
-40
-40
-41
-42
-48
-50
-50
-50
-49
-46
-44
-44
-47
-48
-51
-54
-55
-55
-55
-59
-66
-74
-79
-78
-74
-75
-77
-77
-74
-70
-67
-69
-76
-82
-80
-75
-74
-74
-71
-68
-63
-56
-45
-35
-26
-19
-23
-30
-36
-39
-46
-52
-59
-60
-58
-48
-37
-27
-21
-11
3
15
20
17
9
-5
-14
-18
-21
-26
-27
-29
-27
-19
-7
5
12
15
12
3
-8
-15
-20
-18
-11
-6
0
2
5
5
0
-6
-9
-10
-13
-15
-18
-20
-20
-19
-20
-18
-18
-16
-18
-17
-19
-15
-20
-19
-17
-17
-17
-16
-14
-14
-12
-10
-8
-8
-6
-5
-5
-4
-5
-8
-8
-8
-6
-6
-5
-5
-6
-8
-8
-5
-3
0
2
5
5
6
7
8
7
9
8
9
9
11
10
9
7
7
5
5
5
5
5
5
5
5
3
2
1
0
-3
-3
-3
-3
0
0
1
2
3
1
0
-4
-5
-6
-5
-5
-6
-8
-9
-9
-9
-9
-7
-5
-5
-5
-6
-7
-9
-9
-11
-10
-10
-8
-8
-6
-5
-3
-3
0
0
-3
-6
-5
-6
-5
-5
-4
0
0
-3
0
1
0
-3
-5
-7
-6
-3
0
5
10
15
18
20
20
20
18
17
17
17
19
26
37
53
80
116
155
191
231
275
329
386
442
485
519
536
530
480
390
269
141
20
-80
-155
-206
-239
-258
-270
-278
-279
-268
-249
-226
-204
-189
-173
-153
-128
-98
-63
-26
14
47
78
103
122
137
148
157
163
167
173
178
181
185
188
191
191
192
191
194
195
199
200
201
199
197
192
191
188
185
182
180
175
169
161
155
148
141
134
126
119
113
108
101
95
90
89
86
83
80
77
71
67
60
56
50
46
43
38
32
29
25
20
16
11
7
2
-4
-8
-12
-17
-20
-26
-29
-32
-32
-35
-37
-39
-40
-42
-43
-46
-49
-53
-53
-53
-52
-52
-50
-48
-47
-46
-47
-48
-50
-50
-50
-49
-48
-47
-47
-45
-44
-42
-43
-43
-43
-45
-47
-47
-46
-45
-45
-45
-44
-46
-45
-47
-45
-46
-44
-47
-46
-47
-47
-47
-46
-44
-41
-40
-38
-37
-36
-36
-35
-35
-35
-35
-33
-32
-32
-32
-33
-34
-33
-32
-32
-31
-30
-28
-28
-26
-24
-23
-21
-18
-16
-15
-17
-17
-17
-17
-17
-17
-14
-14
-12
-14
-14
-14
-11
-11
-9
-10
-8
-11
-10
-10
-9
-10
-9
-9
-8
-9
-8
-6
-4
-3
-3
-6
-9
-11
-11
-11
-9
-6
-5
3
9
17
20
20
17
11
7
5
2
-4
-8
-9
-7
-4
4
9
13
13
13
8
3
-4
-7
-12
-12
-14
-12
-14
-15
-19
-20
-24
-26
-26
-28
-30
-29
-26
-23
-20
-17
-14
-14
-10
-7
-6
-8
-11
-14
-14
-12
-11
-10
-7
-5
0
0
2
2
3
2
2
2
0
-4
-6
-11
-17
-23
-27
-21
-10
14
38
74
114
156
200
254
315
383
450
512
563
599
619
609
554
452
321
179
41
-77
-167
-230
-271
-296
-311
-319
-317
-309
-296
-281
-260
-232
-198
-166
-131
-93
-56
-23
11
38
61
82
101
116
126
137
144
149
152
155
154
154
154
155
155
157
158
158
155
153
152
150
149
151
154
153
149
145
141
137
137
134
132
128
125
121
116
110
105
98
91
84
78
71
64
58
53
47
43
36
30
26
23
21
15
11
6
3
0
-5
-10
-12
-17
-23
-28
-32
-35
-37
-42
-44
-45
-44
-45
-43
-42
-43
-47
-50
-53
-54
-53
-52
-51
-49
-46
-46
-44
-44
-46
-48
-50
-51
-52
-52
-48
-44
-38
-30
-22
-18
-20
-24
-30
-38
-48
-53
-53
-50
-45
-36
-31
-25
-22
-20
-22
-22
-21
-20
-21
-21
-25
-30
-36
-39
-40
-39
-40
-41
-41
-41
-39
-41
-47
-53
-55
-50
-40
-34
-33
-36
-35
-30
-25
-30
-39
-47
-54
-60
-59
-55
-49
-42
-35
-30
-29
-27
-32
-39
-50
-54
-51
-43
-36
-33
-38
-44
-50
-49
-47
-42
-41
-40
-38
-31
-23
-20
-23
-31
-39
-44
-43
-41
-36
-30
-25
-23
-20
-15
-11
-10
-10
-14
-18
-21
-18
-12
-8
-8
-7
-8
-9
-9
-7
-5
-5
-5
-5
-3
0
5
8
11
13
17
17
17
17
18
17
17
15
14
11
12
13
13
11
11
11
11
11
11
11
11
14
12
12
11
11
11
14
15
17
17
20
20
20
18
18
17
16
14
14
14
12
12
11
12
11
13
12
14
14
17
17
17
17
15
12
11
8
8
6
7
8
8
6
6
7
5
7
6
8
9
11
11
11
11
12
13
13
14
13
13
14
13
14
18
26
35
51
77
112
152
191
233
282
341
399
455
499
534
557
554
505
413
288
154
23
-89
-172
-227
-259
-270
-272
-274
-275
-270
-262
-254
-247
-239
-229
-215
-195
-169
-132
-88
-37
17
64
100
125
141
153
163
171
176
182
185
186
189
191
194
194
195
194
193
191
193
191
191
191
191
190
188
185
182
176
173
168
164
158
153
149
144
137
133
128
122
118
111
105
99
95
89
86
83
78
71
63
54
48
41
35
32
28
23
20
18
13
7
2
-3
-8
-11
-15
-17
-22
-26
-32
-37
-43
-45
-47
-48
-49
-48
-53
-56
-62
-67
-71
-72
-73
-73
-75
-75
-74
-75
-76
-78
-81
-83
-84
-86
-84
-82
-80
-80
-79
-78
-75
-75
-71
-68
-65
-63
-62
-63
-65
-67
-66
-65
-65
-62
-61
-58
-56
-53
-53
-51
-50
-48
-49
-48
-49
-48
-49
-47
-45
-44
-43
-40
-37
-35
-36
-38
-41
-44
-45
-44
-43
-42
-40
-40
-40
-40
-39
-39
-38
-38
-38
-39
-38
-36
-33
-32
-29
-28
-27
-26
-24
-21
-21
-21
-21
-20
-18
-14
-15
-15
-17
-15
-16
-14
-13
-11
-10
-8
-6
-4
-2
5
11
20
29
40
46
47
41
32
20
10
3
-5
-6
-5
-2
2
7
10
13
14
15
17
15
11
8
4
0
-5
-5
-5
-3
-3
-5
-7
-11
-14
-18
-19
-20
-17
-16
-12
-9
-6
-7
-5
-6
-5
-6
-4
-4
-5
-7
-7
-7
-8
-8
-7
-6
-5
0
-3
-4
-5
-5
-7
-7
-6
-5
-5
-5
-7
-14
-22
-24
-23
-14
2
23
48
80
117
162
209
255
312
369
430
495
547
580
600
584
521
401
267
133
-6
-118
-195
-246
-277
-296
-307
-311
-307
-297
-287
-278
-270
-258
-243
-222
-192
-151
-103
-55
-11
30
63
92
114
129
139
149
156
161
167
171
175
176
176
174
173
173
173
173
173
173
174
173
173
172
173
172
173
173
170
162
155
148
142
137
135
133
130
125
122
117
111
105
98
92
87
82
76
72
68
64
57
53
47
42
37
32
23
13
5
0
-3
-3
5
17
35
59
89
120
155
187
217
245
279
320
359
383
384
345
267
159
32
-106
-240
-361
-455
-526
-566
-581
-575
-551
-515
-469
-423
-382
-347
-326
-318
-317
-320
-323
-324
-318
-304
-281
-251
-216
-184
-157
-131
-107
-79
-52
-28
-11
6
20
39
59
89
127
171
211
247
273
293
304
312
316
317
314
314
311
309
306
305
305
303
300
293
284
271
258
245
233
220
209
198
191
184
177
167
159
150
140
127
117
107
97
88
81
74
65
56
46
38
29
25
17
11
5
0
-8
-13
-20
-26
-32
-35
-41
-44
-50
-54
-57
-59
-62
-64
-66
-69
-73
-77
-80
-85
-88
-92
-96
-100
-102
-105
-106
-108
-108
-109
-108
-107
-105
-107
-105
-104
-102
-99
-95
-90
-88
-89
-88
-87
-86
-83
-84
-82
-81
-79
-78
-76
-74
-70
-68
-65
-64
-62
-62
-61
-61
-62
-64
-63
-62
-57
-52
-46
-43
-48
-55
-60
-62
-60
-57
-56
-56
-57
-54
-52
-47
-42
-36
-32
-27
-26
-31
-38
-45
-46
-44
-41
-36
-32
-35
-34
-33
-27
-22
-16
-15
-15
-17
-17
-18
-20
-23
-23
-28
-31
-33
-30
-25
-17
-11
-10
-14
-19
-26
-30
-31
-30
-28
-27
-26
-26
-27
-32
-35
-38
-36
-35
-32
-32
-30
-26
-24
-24
-24
-21
-18
-13
-8
0
2
4
0
-3
-4
0
0
4
7
14
17
23
25
26
23
23
20
16
11
11
10
11
11
12
11
8
6
2
0
-3
-3
-4
-3
0
3
5
7
9
11
8
6
5
2
2
2
3
3
4
5
5
5
5
5
7
8
11
11
11
11
11
10
10
9
9
8
9
10
11
11
10
5
2
-4
-5
-3
5
20
41
73
113
158
208
265
326
389
450
510
560
593
599
567
488
370
230
92
-32
-130
-200
-247
-276
-299
-311
-316
-310
-302
-291
-281
-263
-238
-204
-170
-131
-91
-51
-17
17
44
69
88
106
119
130
138
145
152
157
162
166
169
173
176
179
181
182
183
182
183
182
181
179
177
175
173
170
168
169
168
168
168
168
165
162
156
152
147
144
137
132
122
114
104
96
87
81
75
69
64
59
53
47
41
35
30
28
26
23
22
20
18
18
17
11
8
2
-3
-8
-11
-15
-19
-23
-24
-25
-26
-27
-27
-26
-29
-30
-33
-35
-38
-39
-42
-43
-44
-44
-48
-50
-50
-49
-50
-47
-47
-48
-51
-52
-53
-53
-53
-49
-43
-37
-34
-32
-34
-40
-44
-48
-49
-48
-46
-45
-41
-37
-29
-24
-19
-16
-14
-15
-15
-17
-20
-23
-26
-25
-26
-26
-28
-29
-34
-38
-42
-44
-44
-42
-40
-36
-32
-28
-26
-23
-24
-26
-30
-31
-32
-30
-29
-27
-25
-24
-26
-26
-25
-26
-27
-29
-29
-28
-26
-26
-26
-27
-26
-27
-26
-25
-23
-23
-23
-24
-26
-26
-26
-26
-27
-29
-30
-29
-30
-27
-27
-27
-27
-26
-24
-20
-19
-17
-18
-17
-16
-15
-17
-17
-19
-20
-21
-21
-20
-21
-23
-23
-22
-21
-20
-18
-17
-18
-20
-23
-23
-24
-23
-22
-19
-17
-14
-14
-13
-11
-9
-9
-8
-8
-9
-9
-8
-5
0
3
4
5
5
5
5
5
4
5
5
9
11
14
11
9
8
6
5
6
8
8
10
12
14
14
15
14
14
14
14
11
11
10
11
13
14
14
11
8
8
14
23
39
68
104
143
182
225
276
335
399
458
507
542
563
555
509
420
302
170
46
-69
-149
-204
-242
-266
-281
-293
-296
-290
-272
-249
-225
-200
-179
-158
-132
-99
-59
-11
32
68
101
129
147
163
172
179
182
187
190
191
190
191
191
193
194
195
198
197
197
194
192
191
191
188
188
185
185
182
181
178
176
172
170
167
163
158
155
150
140
128
119
111
107
104
100
95
90
84
77
71
65
62
56
53
50
45
40
35
31
24
17
10
5
0
-8
-14
-21
-29
-32
-35
-36
-38
-38
-42
-44
-47
-50
-54
-55
-56
-57
-59
-59
-60
-59
-59
-58
-60
-62
-63
-61
-59
-60
-62
-63
-63
-62
-59
-59
-59
-57
-55
-55
-54
-53
-54
-55
-55
-54
-53
-54
-56
-57
-58
-56
-54
-52
-54
-53
-52
-50
-51
-52
-54
-51
-50
-48
-51
-53
-54
-52
-52
-50
-52
-53
-54
-53
-52
-51
-51
-50
-49
-48
-47
-46
-44
-42
-40
-41
-41
-41
-40
-43
-42
-41
-41
-43
-43
-45
-47
-47
-48
-47
-48
-47
-47
-47
-48
-47
-47
-46
-47
-47
-48
-45
-42
-38
-36
-34
-32
-26
-20
-12
-9
-11
-19
-23
-26
-29
-27
-24
-20
-17
-11
-7
1
5
9
9
7
2
-3
-8
-10
-11
-9
-10
-7
-7
-10
-14
-18
-20
-23
-23
-24
-24
-25
-25
-25
-22
-19
-14
-12
-10
-10
-11
-14
-16
-19
-19
-20
-19
-18
-15
-13
-9
-5
0
5
9
11
8
6
2
-4
-7
-9
-13
-13
-11
-5
0
-4
-12
-20
-23
-11
12
39
71
113
167
233
300
365
439
506
560
599
621
626
596
516
396
237
97
-24
-125
-200
-251
-281
-291
-298
-303
-303
-295
-283
-271
-260
-243
-221
-188
-140
-94
-56
-18
16
45
74
90
101
107
119
134
151
157
156
152
150
152
158
163
164
161
157
153
150
151
152
156
157
155
149
144
143
149
158
166
165
160
146
131
122
119
117
115
107
97
92
95
98
92
83
73
64
60
65
71
76
71
55
33
20
18
17
13
6
2
2
4
5
-4
-14
-19
-17
-14
-16
-21
-27
-33
-40
-44
-51
-54
-52
-45
-42
-39
-36
-34
-32
-31
-39
-50
-57
-58
-54
-47
-45
-49
-52
-52
-47
-39
-33
-30
-29
-32
-35
-38
-38
-40
-38
-32
-26
-22
-15
-11
-6
-5
-7
-9
-14
-20
-24
-27
-30
-30
-32
-34
-38
-42
-48
-50
-52
-53
-55
-55
-56
-53
-54
-52
-50
-48
-48
-47
-47
-48
-50
-49
-48
-48
-47
-47
-47
-46
-44
-44
-41
-39
-36
-35
-33
-32
-31
-32
-32
-33
-32
-33
-32
-30
-30
-29
-28
-26
-26
-23
-20
-16
-14
-12
-13
-11
-12
-11
-12
-12
-14
-12
-12
-9
-8
-8
-9
-9
-11
-13
-16
-17
-17
-17
-17
-17
-15
-13
-11
-11
-8
-7
-4
-3
2
3
5
5
5
6
6
4
2
2
2
2
5
8
9
11
9
10
9
12
13
14
14
14
11
10
8
8
6
7
6
5
4
5
5
4
2
1
0
-4
-5
-4
0
1
2
0
-3
-5
-4
-5
-2
1
2
1
2
4
5
5
8
11
12
14
15
17
17
17
17
18
20
23
23
26
28
29
25
26
29
38
52
76
107
141
173
206
245
290
337
383
422
453
479
489
468
406
311
194
78
-29
-115
-179
-219
-243
-253
-258
-259
-258
-252
-244
-236
-227
-219
-209
-194
-173
-147
-113
-71
-18
38
88
125
150
165
175
179
184
185
188
189
192
194
196
196
199
200
202
201
201
202
200
199
197
195
194
191
187
182
177
173
167
164
161
158
152
148
140
133
125
119
115
108
100
93
87
80
74
69
63
56
53
46
41
35
32
26
20
14
11
4
0
-6
-11
-17
-20
-24
-29
-34
-38
-40
-44
-48
-51
-54
-56
-57
-60
-62
-63
-63
-64
-64
-65
-65
-67
-67
-68
-68
-68
-68
-65
-65
-66
-68
-68
-70
-70
-71
-72
-74
-75
-77
-77
-76
-73
-72
-71
-71
-70
-71
-71
-71
-71
-73
-72
-71
-68
-65
-60
-57
-57
-58
-58
-57
-54
-49
-47
-44
-42
-40
-40
-38
-38
-36
-37
-35
-35
-35
-36
-36
-35
-35
-36
-35
-33
-34
-33
-35
-35
-35
-32
-31
-29
-29
-26
-26
-23
-22
-20
-20
-18
-18
-17
-18
-17
-16
-16
-16
-15
-13
-12
-10
-8
-5
-3
0
0
1
2
3
1
2
2
2
4
8
9
6
1
-5
-7
-9
-9
-10
-9
-10
-8
-8
-7
-9
-11
-15
-18
-19
-17
-17
-14
-12
-11
-11
-11
-11
-11
-12
-11
-8
-6
0
5
6
2
-3
-6
-7
-6
-4
-5
-5
-3
0
-3
0
1
2
1
2
4
8
14
17
20
18
15
15
18
20
20
17
19
20
25
26
25
22
22
19
17
15
15
16
21
24
29
27
26
25
23
23
26
29
28
28
29
32
31
27
22
18
17
18
20
27
39
59
83
117
155
191
225
266
314
368
420
464
498
519
526
502
438
338
222
106
2
-84
-147
-193
-220
-236
-245
-252
-253
-253
-252
-253
-251
-244
-233
-218
-198
-174
-145
-105
-54
5
57
101
130
148
159
168
171
173
173
172
173
179
182
182
180
180
181
182
182
180
178
173
170
167
165
164
165
161
153
142
134
126
125
123
121
115
112
109
107
100
92
83
74
65
58
51
44
40
38
35
32
30
25
21
17
14
11
8
5
2
-5
-8
-11
-14
-20
-23
-28
-32
-35
-38
-39
-44
-48
-51
-53
-55
-54
-58
-57
-58
-57
-60
-59
-60
-61
-62
-60
-60
-57
-55
-48
-41
-33
-26
-18
-12
-12
-18
-27
-39
-50
-56
-60
-60
-59
-55
-51
-44
-37
-30
-24
-19
-17
-17
-21
-24
-28
-32
-34
-33
-31
-32
-32
-36
-41
-47
-50
-55
-58
-60
-59
-59
-57
-56
-54
-55
-53
-50
-50
-52
-53
-54
-55
-55
-54
-53
-52
-51
-50
-48
-48
-47
-48
-48
-47
-43
-42
-40
-38
-38
-42
-44
-44
-44
-42
-38
-35
-34
-35
-36
-35
-37
-37
-38
-37
-38
-38
-39
-38
-35
-30
-26
-22
-21
-20
-21
-20
-21
-20
-23
-22
-22
-23
-23
-21
-20
-19
-19
-18
-17
-16
-14
-14
-12
-11
-8
-6
-5
-4
0
0
2
2
2
2
2
5
5
5
6
8
8
8
7
8
8
9
8
9
11
12
11
12
12
14
12
13
13
14
14
15
17
17
17
19
20
20
20
20
20
19
18
17
17
17
17
16
17
17
20
21
23
26
28
29
29
29
27
25
24
27
30
35
38
41
39
38
33
29
26
25
22
21
20
21
23
32
44
57
72
96
124
154
183
215
254
300
351
398
437
467
485
482
448
374
269
153
41
-59
-137
-196
-235
-260
-275
-287
-296
-300
-298
-291
-283
-275
-268
-256
-240
-216
-185
-143
-99
-52
-5
41
74
101
120
134
143
153
161
167
169
173
177
180
182
186
189
190
189
190
190
191
191
192
193
193
193
190
186
182
179
173
168
161
154
146
139
133
126
119
113
108
102
96
89
83
75
71
64
59
53
48
41
35
29
24
18
15
12
11
5
2
-6
-12
-19
-23
-25
-27
-29
-31
-32
-32
-32
-33
-34
-35
-35
-38
-39
-39
-39
-38
-37
-38
-40
-42
-43
-43
-44
-47
-47
-48
-50
-51
-52
-50
-50
-50
-50
-50
-50
-48
-48
-47
-47
-46
-46
-44
-43
-42
-44
-44
-44
-44
-45
-45
-44
-42
-41
-38
-35
-32
-29
-28
-27
-25
-22
-22
-21
-20
-18
-18
-15
-14
-11
-11
-11
-11
-14
-16
-15
-14
-14
-15
-17
-17
-17
-16
-15
-14
-11
-8
-8
-5
-6
-5
-6
-4
0
2
2
5
5
6
5
3
2
2
2
2
5
6
8
8
8
7
8
8
10
12
14
12
13
14
17
18
21
23
21
19
18
17
17
17
17
20
22
26
28
29
26
23
17
14
14
15
17
22
23
27
27
29
27
26
20
18
14
11
9
8
7
5
5
2
1
0
0
-3
0
2
4
4
5
5
5
4
5
5
3
2
1
0
-5
-9
-14
-17
-19
-17
-18
-16
-15
-14
-15
-14
-12
-7
-3
5
10
11
6
0
-10
-15
-18
-15
-13
-14
-17
-20
-21
-20
-17
-15
-13
-13
-11
-9
-7
-5
-5
-5
-5
-7
-6
-5
0
0
-4
-3
6
22
43
71
108
143
175
215
260
318
386
446
489
524
545
545
501
415
311
180
53
-53
-141
-189
-223
-242
-256
-272
-287
-296
-294
-284
-272
-261
-245
-221
-190
-155
-115
-73
-30
13
53
87
114
134
148
156
164
171
180
188
191
194
191
189
187
188
190
194
197
198
197
197
195
194
192
191
188
185
180
176
171
167
158
152
146
140
132
126
119
113
106
100
95
87
81
75
70
65
61
53
47
41
36
30
26
22
17
11
8
7
2
-4
-8
-11
-16
-18
-23
-24
-26
-26
-29
-31
-32
-32
-35
-35
-36
-37
-39
-38
-39
-40
-42
-43
-44
-46
-47
-48
-50
-53
-55
-59
-62
-65
-66
-68
-71
-72
-72
-72
-70
-68
-65
-64
-63
-62
-65
-67
-66
-65
-65
-62
-56
-52
-51
-52
-51
-50
-47
-43
-42
-41
-43
-44
-48
-55
-59
-56
-53
-45
-37
-29
-26
-26
-35
-46
-51
-50
-44
-41
-37
-34
-30
-30
-30
-34
-37
-40
-42
-45
-43
-39
-33
-31
-32
-34
-33
-33
-29
-24
-23
-24
-28
-31
-33
-32
-33
-30
-28
-23
-17
-8
2
7
5
0
-11
-16
-20
-19
-17
-14
-15
-14
-13
-14
-15
-11
-5
2
2
5
3
0
0
1
3
5
5
0
-7
-12
-17
-22
-21
-19
-15
-13
-11
-8
-6
-4
0
1
-3
-3
-5
-5
-5
-4
-5
0
2
6
6
7
6
5
2
2
4
4
3
3
2
1
-4
-5
-10
-14
-11
-5
11
28
50
73
106
141
181
223
272
323
378
431
482
525
557
560
522
440
324
192
63
-48
-135
-196
-238
-262
-278
-287
-293
-290
-285
-280
-276
-269
-261
-246
-228
-199
-159
-111
-61
-10
37
74
101
120
134
143
152
157
162
167
171
171
173
172
171
169
170
170
168
167
167
167
167
165
164
164
161
158
156
154
149
147
142
139
134
131
125
122
116
111
103
95
88
83
77
71
65
58
50
47
44
46
51
61
72
84
101
123
149
175
200
224
253
288
329
362
380
371
331
258
164
52
-70
-192
-307
-404
-478
-523
-539
-536
-520
-491
-457
-419
-385
-356
-336
-319
-308
-299
-291
-283
-271
-253
-230
-201
-174
-149
-131
-114
-100
-87
-76
-64
-48
-28
-4
25
53
79
109
140
179
218
253
277
293
300
303
302
301
299
295
292
293
294
294
293
293
291
290
291
290
288
280
269
254
244
233
226
215
203
188
173
158
145
131
117
103
91
80
68
57
48
41
32
25
17
11
5
1
-8
-14
-23
-32
-41
-44
-47
-48
-51
-54
-57
-61
-65
-67
-68
-68
-68
-68
-70
-74
-76
-78
-80
-80
-75
-75
-76
-78
-78
-80
-79
-78
-77
-78
-78
-77
-77
-78
-77
-75
-72
-71
-71
-71
-71
-71
-71
-71
-70
-65
-62
-59
-60
-63
-70
-71
-72
-71
-70
-68
-66
-63
-61
-59
-59
-60
-62
-61
-58
-57
-54
-55
-53
-53
-50
-50
-48
-48
-51
-55
-55
-53
-50
-50
-50
-51
-50
-49
-46
-43
-41
-41
-42
-45
-48
-47
-44
-38
-34
-30
-31
-34
-38
-42
-44
-43
-41
-39
-39
-38
-37
-36
-36
-35
-32
-32
-32
-32
-30
-31
-30
-31
-31
-30
-28
-30
-29
-27
-25
-26
-24
-24
-22
-22
-20
-19
-19
-20
-17
-16
-15
-15
-15
-14
-15
-15
-15
-14
-14
-13
-14
-11
-11
-9
-9
-9
-9
-9
-11
-11
-11
-10
-8
-6
-5
-6
-6
-6
-6
-8
-8
-8
-7
-6
-3
-4
-3
-5
-5
-7
-6
-6
-5
-6
-5
-5
-5
-6
-5
-5
-5
-6
-6
-5
-5
-4
-3
1
1
2
0
1
0
1
0
2
2
4
1
0
-3
-4
-4
0
2
2
3
4
5
5
5
3
3
2
4
5
11
17
25
26
23
17
13
7
5
3
5
6
11
17
21
25
30
38
50
70
95
126
158
194
233
275
320
363
399
428
447
452
430
373
279
170
59
-39
-116
-176
-219
-248
-266
-279
-290
-297
-299
-296
-287
-283
-276
-266
-252
-237
-216
-189
-151
-103
-53
6
60
102
137
155
166
173
179
185
189
192
195
197
197
198
197
197
197
197
196
197
197
197
195
194
191
188
184
182
179
176
173
170
170
166
164
158
155
149
145
138
132
125
122
116
113
108
104
98
93
88
85
80
77
74
71
67
65
61
56
51
46
41
37
33
26
20
14
10
5
2
-3
-6
-9
-10
-11
-13
-17
-19
-21
-23
-25
-27
-28
-32
-33
-35
-35
-35
-35
-36
-38
-40
-41
-44
-43
-42
-39
-38
-36
-35
-32
-32
-32
-32
-34
-35
-34
-32
-31
-29
-29
-28
-26
-23
-23
-23
-24
-28
-34
-38
-41
-43
-45
-44
-42
-38
-35
-31
-29
-31
-33
-35
-35
-38
-36
-35
-32
-31
-29
-32
-33
-36
-35
-35
-32
-29
-24
-20
-13
-6
5
14
20
18
11
2
0
5
15
23
32
33
29
23
17
12
5
-5
-16
-24
-28
-29
-31
-32
-32
-29
-24
-14
-4
4
6
8
9
11
12
11
8
2
1
-5
-5
-6
-5
-5
1
5
11
14
17
16
14
10
7
3
0
-4
-5
-5
-4
-5
-8
-9
-13
-14
-18
-19
-19
-16
-14
-11
-10
-8
-7
-5
-5
-5
-8
-10
-11
-11
-11
-11
-9
-8
-6
-6
-6
-7
-5
-6
-5
-4
1
2
3
2
3
0
0
-7
-12
-19
-20
-14
0
16
37
62
95
135
177
218
260
310
362
422
482
530
562
569
542
470
360
230
84
-22
-115
-179
-222
-251
-270
-283
-288
-286
-277
-271
-266
-264
-259
-253
-238
-215
-181
-139
-89
-38
13
51
84
107
125
135
144
148
151
152
156
161
164
165
165
164
164
166
164
164
163
164
161
159
156
153
149
147
146
143
138
136
132
127
122
119
115
110
105
99
93
87
84
80
76
71
66
59
53
47
44
38
34
29
24
18
14
9
3
-5
-8
-12
-18
-25
-31
-32
-34
-36
-41
-47
-52
-54
-56
-54
-53
-53
-55
-58
-63
-65
-63
-62
-58
-58
-60
-62
-63
-66
-67
-66
-63
-62
-60
-63
-65
-69
-70
-71
-68
-62
-53
-51
-51
-56
-63
-68
-69
-67
-60
-53
-44
-35
-35
-43
-50
-55
-60
-60
-59
-55
-50
-39
-32
-25
-18
-13
-18
-29
-43
-56
-60
-53
-41
-26
-15
-7
-5
-8
-11
-12
-14
-14
-10
-13
-15
-15
-8
1
9
11
7
-3
-9
-14
-15
-15
-13
-8
-5
-8
-14
-23
-29
-32
-30
-24
-22
-22
-23
-23
-21
-19
-17
-14
-14
-13
-13
-12
-11
-11
-11
-10
-10
-9
-9
-8
-7
-8
-8
-8
-7
-7
-5
-5
-3
0
2
1
2
4
5
5
6
6
7
5
3
-3
-6
-6
3
15
32
52
77
110
145
185
226
272
321
374
423
472
512
545
555
528
456
347
219
88
-30
-122
-190
-235
-263
-283
-296
-302
-299
-294
-288
-286
-280
-273
-260
-244
-217
-182
-134
-83
-31
18
59
88
111
125
135
142
147
152
156
159
162
164
166
169
169
170
169
169
165
164
163
163
161
159
157
154
150
149
146
141
136
131
126
120
116
111
107
102
99
93
89
84
81
75
71
66
62
55
50
44
40
35
36
41
48
58
71
89
113
140
167
192
217
245
278
315
350
371
368
337
277
192
88
-28
-146
-260
-363
-441
-493
-518
-522
-509
-485
-454
-419
-385
-354
-331
-312
-301
-292
-284
-275
-266
-249
-227
-198
-171
-146
-127
-110
-95
-81
-67
-55
-44
-26
-5
20
45
72
101
129
164
200
237
268
291
302
308
308
305
300
298
296
296
296
296
298
299
301
303
302
296
287
275
263
252
242
232
221
210
197
179
162
144
129
115
104
95
86
75
67
58
50
41
34
27
20
13
6
1
-7
-12
-17
-22
-27
-32
-37
-41
-45
-48
-52
-54
-57
-60
-63
-65
-65
-66
-68
-71
-73
-76
-77
-75
-74
-74
-74
-76
-77
-78
-77
-77
-75
-75
-74
-74
-72
-71
-69
-70
-69
-69
-69
-70
-68
-67
-65
-65
-64
-63
-63
-61
-61
-59
-59
-56
-56
-53
-53
-55
-56
-57
-58
-57
-57
-55
-53
-52
-52
-51
-50
-49
-48
-45
-41
-42
-44
-48
-50
-51
-48
-48
-45
-44
-40
-39
-38
-38
-37
-37
-35
-32
-32
-34
-35
-38
-42
-43
-39
-35
-29
-24
-26
-29
-33
-35
-35
-32
-30
-29
-29
-29
-27
-26
-27
-25
-23
-20
-20
-19
-20
-23
-24
-25
-25
-23
-20
-20
-20
-22
-21
-21
-20
-21
-19
-18
-16
-16
-15
-17
-15
-15
-16
-20
-20
-18
-15
-14
-11
-5
1
2
-5
-11
-18
-20
-20
-14
-11
-9
-11
-10
-9
-11
-12
-12
-10
-8
-5
-5
-8
-12
-11
-6
1
1
-4
-8
-7
-6
0
0
2
2
5
4
4
2
2
0
0
2
3
2
2
2
4
5
10
16
18
20
17
14
10
9
8
9
9
12
16
20
23
24
24
26
28
28
26
23
20
18
17
17
17
13
11
7
5
4
5
2
4
2
3
5
12
25
46
72
107
143
179
213
253
296
341
386
428
462
483
488
461
399
307
198
80
-25
-99
-162
-208
-238
-259
-273
-287
-295
-296
-290
-277
-263
-251
-242
-234
-225
-212
-193
-166
-125
-70
-9
54
104
143
167
179
182
186
191
198
199
196
189
184
182
186
194
203
213
222
225
218
207
192
183
179
179
179
182
183
183
181
179
176
174
174
174
168
155
137
119
110
107
111
114
116
115
113
110
104
98
91
81
72
60
52
45
45
44
42
37
33
28
23
17
11
7
3
-3
-5
-8
-11
-14
-17
-20
-23
-24
-29
-31
-35
-36
-40
-41
-42
-44
-46
-47
-47
-47
-48
-49
-48
-50
-51
-51
-50
-51
-50
-50
-49
-49
-47
-48
-48
-48
-47
-47
-45
-44
-42
-42
-39
-36
-32
-30
-26
-27
-29
-33
-35
-35
-35
-35
-32
-28
-22
-15
-11
-9
-8
-9
-13
-16
-20
-22
-24
-25
-26
-27
-29
-32
-34
-36
-38
-39
-38
-38
-35
-35
-32
-32
-29
-29
-28
-28
-26
-29
-30
-32
-32
-32
-30
-30
-29
-30
-30
-29
-29
-29
-27
-26
-26
-26
-26
-26
-26
-25
-26
-25
-24
-23
-23
-22
-22
-21
-22
-21
-20
-19
-18
-18
-18
-20
-20
-21
-20
-20
-18
-18
-17
-17
-16
-17
-14
-14
-11
-11
-9
-9
-8
-9
-8
-8
-6
-7
-6
-6
-7
-8
-8
-7
-8
-8
-8
-8
-9
-9
-10
-9
-8
-8
-8
-8
-7
-5
-6
-5
-5
-5
-6
-5
-4
-4
-4
-3
0
0
1
1
1
0
1
0
1
2
4
4
5
5
5
5
5
5
7
6
8
8
8
8
9
10
9
8
8
7
8
14
23
38
60
92
129
164
197
235
275
320
367
407
439
467
485
479
428
344
248
133
25
-68
-145
-188
-217
-236
-246
-254
-257
-259
-251
-243
-237
-233
-225
-215
-200
-183
-156
-123
-82
-35
20
70
110
138
158
170
177
183
186
191
195
200
202
201
197
194
191
191
191
191
191
191
191
188
185
182
180
176
174
171
170
165
162
155
147
138
131
123
119
115
113
107
104
99
93
88
84
79
74
68
64
59
53
47
41
35
28
23
16
11
10
9
5
4
1
-4
-11
-18
-24
-28
-32
-33
-36
-40
-43
-44
-43
-42
-41
-41
-43
-47
-49
-54
-57
-59
-58
-59
-57
-57
-54
-53
-55
-59
-62
-62
-56
-53
-54
-59
-59
-58
-59
-59
-60
-61
-62
-61
-62
-59
-54
-50
-49
-47
-47
-48
-51
-50
-49
-47
-48
-50
-51
-53
-53
-50
-48
-48
-46
-44
-42
-41
-40
-39
-37
-36
-34
-35
-36
-38
-38
-38
-34
-32
-30
-32
-32
-31
-31
-32
-32
-31
-31
-32
-34
-34
-32
-29
-29
-29
-30
-30
-30
-28
-27
-27
-27
-24
-25
-26
-27
-26
-25
-24
-24
-24
-23
-22
-20
-20
-20
-20
-19
-19
-17
-16
-13
-13
-10
-9
-10
-12
-13
-14
-12
-12
-9
-8
-6
-6
-6
-8
-10
-11
-11
-11
-11
-10
-13
-12
-12
-10
-8
-5
-2
1
0
3
5
8
7
7
5
4
3
5
2
3
2
0
0
5
13
17
19
18
20
17
17
17
18
18
23
27
29
29
29
29
26
21
17
14
11
14
20
29
33
33
23
14
6
5
6
10
11
9
2
-6
-5
0
5
8
11
11
13
14
17
19
20
20
20
16
14
10
8
6
5
0
2
8
23
41
67
99
137
173
214
258
310
365
423
473
513
544
560
547
488
383
245
106
-17
-100
-151
-173
-174
-158
-132
-104
-79
-57
-41
-28
-17
-10
-5
2
5
8
12
17
23
27
33
37
42
47
53
56
59
60
63
65
68
69
71
71
73
74
74
72
73
74
74
74
74
74
74
74
72
72
71
71
68
68
67
67
65
63
60
56
50
45
41
38
35
34
32
29
25
21
17
13
10
5
2
-5
-9
-16
-20
-21
-17
-9
12
41
74
109
145
174
197
209
206
179
122
44
-43
-125
-192
-239
-277
-308
-335
-357
-379
-395
-404
-407
-403
-390
-375
-362
-355
-348
-338
-324
-303
-275
-242
-209
-175
-146
-122
-103
-86
-74
-57
-33
-6
28
62
92
125
157
188
221
253
279
302
317
326
333
338
341
338
331
323
314
304
296
287
281
278
276
275
275
272
269
262
254
245
236
227
219
213
206
197
188
176
158
140
124
110
97
88
76
67
59
53
42
35
25
17
8
2
-7
-13
-20
-24
-28
-32
-37
-41
-44
-47
-51
-53
-55
-58
-60
-63
-64
-66
-67
-69
-70
-71
-71
-74
-75
-76
-77
-78
-77
-77
-77
-76
-75
-73
-73
-73
-73
-73
-74
-74
-74
-73
-73
-71
-71
-71
-71
-69
-71
-70
-71
-69
-70
-68
-67
-66
-66
-65
-65
-65
-64
-62
-60
-59
-59
-59
-58
-58
-57
-58
-57
-56
-55
-55
-52
-50
-48
-48
-46
-45
-44
-44
-44
-42
-42
-41
-40
-38
-38
-36
-37
-35
-34
-32
-33
-32
-31
-30
-30
-30
-30
-29
-29
-29
-29
-29
-30
-29
-29
-28
-26
-25
-24
-26
-25
-26
-25
-24
-23
-23
-20
-20
-18
-17
-17
-17
-17
-17
-17
-16
-15
-17
-16
-14
-15
-15
-14
-13
-14
-13
-12
-12
-13
-11
-12
-8
-8
-7
-11
-11
-12
-10
-9
-6
-4
-3
-6
-7
-9
-9
-10
-8
-6
-3
2
2
2
1
2
0
0
-4
-5
-7
-6
-6
-5
-3
2
3
2
0
0
1
3
5
8
8
5
5
5
7
9
12
11
11
13
17
20
24
23
19
11
5
5
9
15
20
23
24
26
30
35
36
33
25
17
13
11
10
11
11
13
12
13
11
7
3
0
-5
-7
-8
-7
-6
-4
2
8
14
14
14
9
6
5
9
11
12
9
6
1
0
4
11
20
38
66
102
140
176
209
244
282
326
371
414
454
482
490
464
402
308
197
87
-14
-96
-159
-202
-232
-253
-267
-278
-287
-290
-283
-272
-264
-258
-248
-233
-219
-200
-177
-143
-100
-44
14
66
105
136
155
168
174
181
184
188
190
191
191
193
194
193
190
188
189
191
191
191
191
190
186
179
174
171
170
168
169
168
165
159
154
149
145
140
137
135
131
128
123
118
109
104
97
92
88
86
80
76
70
65
59
54
47
41
35
34
34
35
34
31
26
16
6
-4
-9
-14
-15
-16
-16
-19
-24
-29
-30
-30
-34
-43
-49
-50
-47
-44
-41
-41
-41
-41
-40
-39
-41
-41
-43
-48
-56
-62
-62
-57
-50
-42
-40
-38
-41
-42
-47
-48
-47
-44
-42
-35
-29
-23
-21
-22
-23
-24
-23
-17
-12
-14
-17
-23
-25
-24
-22
-25
-29
-33
-36
-38
-37
-38
-38
-39
-38
-35
-35
-37
-39
-41
-44
-42
-41
-37
-35
-33
-33
-32
-33
-33
-35
-34
-33
-30
-30
-29
-30
-29
-29
-26
-27
-26
-26
-25
-24
-23
-24
-23
-23
-23
-23
-24
-23
-22
-20
-20
-19
-19
-18
-19
-19
-19
-17
-18
-17
-15
-15
-15
-14
-13
-14
-13
-13
-11
-11
-10
-11
-11
-11
-9
-10
-9
-10
-8
-9
-8
-8
-8
-8
-6
-6
-5
-6
-5
-5
-5
-6
-5
-5
-5
-3
-4
-3
-3
0
0
-3
-3
0
-3
0
0
0
-4
-4
-4
-4
-4
-3
0
0
-3
-3
0
0
2
2
2
2
3
2
3
3
5
3
5
4
5
3
4
3
5
3
4
5
3
2
2
3
4
4
3
4
4
6
5
6
6
7
6
5
5
8
15
29
48
75
108
145
181
216
254
294
337
375
410
440
464
470
447
381
284
172
62
-39
-119
-178
-218
-243
-255
-263
-266
-263
-254
-244
-236
-232
-227
-218
-206
-189
-164
-130
-88
-39
14
65
109
142
161
173
180
185
187
189
189
191
191
192
194
193
192
192
191
191
191
188
188
185
185
182
180
176
174
169
166
161
158
153
150
146
141
134
129
125
119
114
110
104
101
95
88
82
76
71
65
60
56
53
47
44
38
34
29
23
19
14
8
5
0
-5
-8
-10
-12
-17
-17
-20
-25
-30
-35
-41
-41
-42
-42
-45
-44
-46
-46
-48
-47
-49
-49
-50
-51
-52
-53
-54
-55
-54
-54
-55
-55
-53
-53
-51
-53
-54
-54
-52
-52
-50
-50
-51
-53
-54
-53
-51
-53
-50
-49
-48
-47
-45
-43
-42
-41
-41
-41
-45
-47
-50
-48
-50
-45
-44
-40
-41
-41
-43
-41
-41
-39
-40
-38
-36
-32
-31
-33
-35
-38
-36
-32
-27
-27
-29
-33
-34
-34
-33
-34
-35
-33
-30
-27
-24
-23
-20
-20
-21
-24
-26
-30
-29
-22
-18
-17
-20
-20
-19
-15
-14
-15
-19
-19
-18
-14
-13
-11
-15
-19
-20
-20
-19
-15
-14
-12
-13
-11
-8
-6
-5
-4
-3
-6
-7
-6
-4
1
0
-4
-4
0
2
2
-3
-6
-9
-9
-7
-7
-6
-5
-4
2
2
5
5
5
5
6
3
3
6
10
7
2
-4
-4
0
5
5
5
3
2
2
2
1
4
2
-5
-10
-12
-9
-5
0
2
4
5
4
2
5
8
11
11
10
10
12
16
21
28
32
30
27
26
25
26
29
31
27
23
18
20
23
29
29
25
18
16
15
18
18
18
19
23
24
26
30
41
58
81
113
151
191
227
264
305
347
390
434
472
502
520
516
471
386
276
157
44
-52
-124
-179
-218
-240
-255
-265
-272
-270
-262
-254
-248
-245
-242
-232
-218
-204
-182
-147
-100
-45
16
69
113
140
158
167
175
181
186
192
193
191
192
193
195
197
198
200
199
198
191
187
185
183
180
176
173
167
163
160
159
161
162
166
168
165
161
146
129
111
102
98
101
101
98
96
92
84
77
73
71
68
63
54
49
41
34
24
19
14
14
11
7
7
8
8
6
5
1
-5
-11
-19
-29
-37
-42
-42
-38
-35
-33
-30
-23
-6
23
53
85
116
144
171
203
237
275
305
320
305
253
165
60
-47
-144
-239
-328
-408
-471
-515
-539
-554
-556
-542
-507
-455
-393
-336
-287
-245
-212
-180
-146
-113
-87
-70
-59
-48
-43
-36
-28
-15
3
29
63
101
146
191
237
278
308
324
334
341
348
351
349
339
333
329
330
329
329
326
324
320
318
320
318
309
297
277
253
230
213
203
194
190
187
182
173
165
151
135
122
113
107
101
92
79
63
51
42
35
27
20
17
11
2
-8
-17
-25
-29
-32
-35
-40
-43
-48
-51
-55
-58
-63
-67
-71
-74
-77
-78
-80
-80
-83
-84
-85
-86
-88
-88
-88
-89
-89
-89
-89
-89
-87
-88
-87
-86
-82
-78
-70
-60
-50
-38
-21
2
28
56
83
110
136
161
190
221
252
280
305
328
349
370
378
360
301
209
95
-23
-131
-223
-303
-367
-418
-454
-476
-480
-469
-441
-405
-360
-324
-299
-286
-281
-277
-267
-248
-228
-197
-162
-120
-74
-30
11
44
69
89
102
114
125
134
143
151
158
167
172
175
176
175
173
172
173
173
175
172
167
158
150
142
136
129
122
116
110
101
95
88
83
76
72
67
62
57
53
49
44
40
35
31
26
23
18
14
8
5
-3
-7
-11
-14
-19
-22
-24
-28
-33
-36
-39
-44
-47
-49
-50
-54
-56
-58
-57
-60
-60
-64
-64
-65
-65
-66
-66
-67
-68
-70
-70
-69
-68
-68
-68
-67
-68
-68
-67
-65
-66
-65
-65
-64
-63
-61
-62
-60
-60
-59
-58
-56
-56
-56
-57
-58
-57
-56
-56
-53
-51
-51
-50
-50
-48
-48
-47
-47
-46
-47
-47
-47
-47
-46
-44
-44
-43
-43
-41
-41
-39
-38
-36
-36
-34
-33
-33
-34
-35
-34
-33
-32
-32
-32
-31
-30
-30
-29
-27
-26
-25
-25
-26
-27
-28
-27
-25
-25
-24
-23
-21
-20
-20
-18
-16
-17
-15
-15
-14
-14
-12
-14
-12
-12
-11
-13
-14
-14
-14
-14
-13
-12
-12
-12
-11
-9
-9
-10
-9
-8
-9
-7
-7
-7
-7
-6
-7
-6
-7
-6
-6
-6
-5
-5
-6
-6
-6
-8
-10
-10
-9
-9
-9
-9
-7
-8
-6
-7
-6
-6
-4
-5
-3
0
2
1
2
2
2
1
2
2
3
2
3
2
2
3
4
5
3
2
0
1
2
5
5
8
11
14
13
11
11
11
11
10
8
5
2
0
-4
-5
-6
-4
-3
-3
0
0
0
2
2
-8
-11
-13
-9
-5
2
8
17
30
54
83
114
146
176
208
251
290
333
379
416
446
473
483
466
412
323
218
108
14
-68
-133
-181
-211
-233
-246
-257
-265
-266
-260
-253
-247
-242
-231
-221
-215
-204
-188
-155
-110
-52
6
59
98
126
144
158
169
180
186
191
195
203
208
209
202
194
191
192
195
193
191
191
196
200
199
191
182
176
177
180
180
177
172
164
160
155
145
137
132
131
132
131
128
124
114
104
96
89
84
82
76
71
67
66
62
59
56
52
40
28
18
11
5
3
3
5
8
12
12
6
-5
-17
-26
-30
-31
-35
-38
-39
-37
-35
-36
-43
-50
-54
-53
-50
-48
-48
-48
-47
-47
-47
-48
-51
-57
-62
-62
-58
-56
-54
-52
-46
-43
-43
-52
-59
-65
-63
-61
-54
-45
-41
-42
-46
-51
-54
-53
-48
-42
-39
-39
-40
-39
-37
-32
-31
-33
-40
-44
-47
-44
-37
-31
-28
-29
-38
-45
-46
-41
-32
-27
-25
-26
-26
-26
-26
-25
-24
-23
-20
-20
-22
-27
-30
-32
-29
-23
-18
-16
-12
-11
-11
-14
-14
-17
-20
-19
-14
-8
-10
-14
-14
-12
-9
-7
-8
-7
-6
-8
-12
-15
-14
-8
-7
-9
-12
-11
-6
4
11
14
11
5
-8
-18
-25
-29
-27
-23
-17
-14
-11
-11
-11
-10
-6
-6
-5
-8
-7
-5
3
7
10
14
17
18
21
23
21
19
17
17
19
23
26
29
28
25
20
17
13
8
5
5
7
10
12
14
11
9
6
5
8
8
10
11
14
14
13
11
10
9
11
9
11
11
14
13
16
18
21
17
11
3
-8
-13
-11
1
15
32
53
78
110
149
181
213
252
296
345
400
452
494
521
533
518
461
370
257
132
14
-82
-154
-205
-247
-278
-297
-303
-297
-283
-277
-273
-269
-262
-255
-240
-219
-188
-149
-101
-54
-6
37
74
102
123
136
144
152
158
164
169
173
171
169
162
158
155
154
153
155
158
164
165
165
164
158
152
147
143
141
140
139
137
132
128
124
121
117
116
110
107
101
94
83
77
71
68
63
61
56
50
44
40
36
32
27
23
20
14
9
5
1
-5
-8
-14
-17
-20
-23
-26
-29
-32
-34
-36
-38
-38
-41
-43
-44
-45
-47
-50
-50
-50
-52
-53
-54
-54
-54
-53
-55
-55
-56
-55
-56
-56
-56
-54
-54
-53
-53
-53
-54
-54
-53
-53
-53
-51
-49
-48
-47
-47
-46
-46
-45
-47
-46
-45
-44
-44
-43
-43
-41
-41
-40
-40
-40
-41
-39
-38
-38
-37
-36
-35
-35
-34
-34
-33
-33
-31
-32
-30
-30
-28
-29
-29
-31
-32
-35
-36
-36
-36
-37
-35
-34
-35
-35
-35
-33
-32
-32
-31
-29
-29
-26
-25
-23
-20
-15
-11
-5
2
5
5
6
9
11
11
9
6
2
-3
-5
-3
-4
0
1
1
-3
-3
-5
-5
-4
0
-4
-3
-3
1
1
2
3
3
2
3
3
2
2
4
5
5
5
5
6
7
8
8
8
8
8
6
6
5
2
-5
-8
-4
8
20
40
62
89
122
158
197
239
284
332
381
428
474
513
544
552
521
442
332
202
73
-42
-129
-192
-232
-259
-276
-287
-292
-290
-284
-278
-272
-266
-257
-245
-228
-203
-172
-128
-79
-26
24
65
95
116
131
142
149
153
155
159
163
164
164
165
167
167
169
169
170
170
170
168
166
161
158
155
155
152
151
145
141
137
137
132
129
125
122
117
113
107
101
94
86
79
74
72
68
63
56
50
41
39
38
31
23
17
8
4
1
3
3
-3
-11
-18
-24
-29
-32
-33
-34
-38
-38
-42
-43
-46
-45
-47
-47
-45
-41
-43
-46
-49
-54
-62
-67
-67
-64
-59
-53
-54
-57
-58
-55
-50
-48
-48
-51
-50
-44
-35
-34
-38
-48
-59
-63
-63
-62
-62
-65
-62
-52
-38
-32
-31
-32
-37
-43
-47
-48
-50
-47
-39
-32
-31
-32
-40
-45
-48
-44
-44
-43
-39
-31
-24
-18
-19
-26
-34
-38
-37
-36
-32
-23
-15
-12
-9
-10
-14
-18
-23
-29
-27
-20
-13
-11
-10
-12
-17
-20
-23
-26
-29
-26
-17
-5
6
14
16
11
3
1
-6
-8
-8
0
5
11
11
4
-9
-14
-11
-6
-3
3
8
10
6
0
-7
-12
-16
-14
-4
9
22
26
20
9
-4
-12
-9
0
7
12
16
20
22
19
11
6
5
8
13
17
17
13
8
5
2
1
2
7
9
15
20
27
29
24
11
5
2
5
19
45
72
104
137
169
206
248
293
344
400
455
503
539
567
575
543
460
344
206
75
-33
-111
-175
-221
-247
-264
-279
-284
-281
-272
-264
-257
-251
-243
-232
-218
-197
-169
-126
-74
-16
42
87
119
134
137
139
142
149
161
178
187
185
176
169
167
168
172
176
182
186
184
175
167
168
179
183
181
173
167
158
150
143
132
125
126
133
137
137
134
128
117
105
94
86
77
74
69
68
68
66
57
49
41
35
32
32
32
30
27
23
15
5
-11
-19
-23
-23
-24
-25
-27
-29
-31
-35
-38
-40
-39
-39
-38
-41
-44
-47
-49
-49
-48
-50
-50
-52
-53
-55
-56
-56
-59
-62
-60
-57
-56
-55
-55
-53
-53
-52
-55
-57
-61
-62
-62
-61
-59
-56
-55
-53
-55
-56
-57
-52
-44
-35
-29
-26
-27
-35
-45
-56
-60
-59
-50
-39
-30
-23
-20
-22
-24
-27
-28
-29
-27
-24
-20
-18
-20
-29
-42
-51
-55
-57
-59
-56
-53
-47
-42
-39
-41
-41
-41
-37
-35
-29
-26
-24
-27
-30
-35
-44
-50
-50
-47
-43
-38
-30
-24
-22
-22
-23
-25
-28
-30
-36
-38
-36
-34
-35
-35
-32
-26
-20
-14
-14
-19
-28
-33
-33
-35
-35
-36
-36
-35
-30
-27
-23
-20
-17
-18
-16
-17
-17
-22
-26
-33
-37
-38
-32
-26
-20
-18
-18
-18
-17
-14
-8
-5
-5
-8
-14
-20
-24
-23
-22
-19
-16
-14
-15
-15
-14
-12
-10
-7
-5
-3
-3
1
4
5
3
0
-5
-10
-11
-11
-9
-8
-5
-5
-4
-3
0
-3
-3
0
0
0
1
2
2
1
3
4
4
3
4
5
5
5
6
8
8
9
8
8
7
7
5
6
7
8
7
8
11
11
11
11
12
11
10
10
11
11
13
12
14
14
14
12
14
18
29
44
70
101
137
170
203
239
278
319
360
396
426
450
464
452
402
318
212
103
2
-83
-150
-196
-226
-242
-250
-254
-254
-249
-242
-233
-228
-226
-221
-210
-196
-178
-151
-116
-74
-28
26
72
110
137
156
165
174
180
186
188
192
194
198
199
200
201
201
199
200
200
200
197
197
195
194
192
191
187
183
181
176
172
167
164
158
154
149
144
138
134
129
123
116
111
106
101
95
89
86
80
77
72
68
61
56
48
44
39
35
29
24
20
17
11
8
5
2
-5
-8
-11
-15
-20
-22
-23
-24
-27
-30
-33
-35
-38
-40
-42
-43
-43
-44
-44
-46
-47
-49
-50
-50
-51
-52
-51
-50
-50
-51
-52
-52
-53
-53
-53
-51
-51
-50
-51
-50
-50
-49
-48
-46
-44
-44
-46
-45
-45
-46
-46
-44
-41
-38
-35
-35
-38
-43
-45
-45
-44
-41
-39
-38
-35
-32
-30
-32
-33
-32
-32
-31
-27
-25
-26
-30
-32
-31
-30
-29
-29
-29
-32
-32
-31
-27
-24
-20
-19
-20
-22
-23
-23
-24
-26
-24
-24
-23
-25
-28
-31
-31
-27
-22
-20
-17
-14
-14
-14
-14
-14
-16
-17
-17
-13
-11
-9
-11
-14
-17
-13
-9
-7
-10
-16
-20
-18
-11
-7
-8
-11
-15
-14
-9
-7
-6
-9
-10
-11
-8
-4
2
1
2
4
3
-4
-7
-5
4
7
5
0
-8
-11
-5
5
9
7
2
-3
-4
3
7
11
10
4
-6
-5
2
7
9
11
9
5
5
7
9
12
18
20
15
6
0
-5
0
4
8
11
12
11
10
4
2
2
6
7
8
7
7
5
1
2
5
7
8
11
11
15
26
38
43
42
33
25
18
19
23
26
24
19
14
15
20
29
36
39
39
38
33
29
29
27
25
23
25
24
27
35
48
64
92
124
162
201
244
284
325
368
410
447
489
528
546
521
450
345
224
113
17
-66
-125
-166
-194
-212
-227
-236
-240
-242
-245
-245
-245
-241
-232
-214
-190
-163
-137
-110
-75
-27
31
81
125
157
179
186
189
188
189
192
199
203
209
211
209
206
209
213
215
207
197
188
185
185
189
192
192
192
191
191
187
177
162
147
137
135
135
141
144
143
137
129
119
110
104
98
94
92
87
81
71
59
50
45
46
51
54
45
37
29
23
14
11
8
8
8
5
-3
-9
-12
-14
-19
-23
-22
-18
-18
-22
-28
-29
-27
-22
-22
-32
-44
-53
-53
-50
-42
-36
-33
-31
-26
-29
-38
-46
-48
-47
-44
-39
-39
-40
-41
-42
-46
-47
-47
-42
-39
-31
-21
-16
-21
-29
-33
-36
-42
-43
-43
-44
-42
-36
-31
-27
-23
-22
-26
-27
-26
-21
-15
-17
-26
-35
-32
-22
-12
-13
-18
-27
-30
-30
-26
-26
-21
-14
-8
-6
-9
-15
-19
-19
-11
-3
2
-4
-13
-18
-22
-15
-8
0
2
1
-7
-11
-17
-15
-8
0
4
9
8
1
-16
-27
-33
-31
-18
0
15
17
15
11
10
5
-7
-18
-25
-27
-26
-26
-23
-19
-15
-14
-14
-12
-6
5
9
5
-3
-7
-4
7
17
23
24
30
36
38
31
23
11
3
-5
-5
2
10
14
17
17
16
12
10
7
3
2
4
5
3
2
2
3
4
2
0
2
4
5
5
10
11
11
9
9
9
9
7
5
5
4
3
2
2
2
3
2
2
7
20
34
50
63
82
110
145
188
236
283
334
384
431
472
507
530
525
480
395
281
154
30
-77
-157
-215
-251
-277
-292
-302
-306
-305
-301
-296
-290
-284
-274
-260
-242
-215
-179
-131
-75
-18
29
60
83
101
116
131
137
143
145
150
155
158
158
155
147
139
136
142
152
158
158
156
152
146
140
137
137
135
135
131
124
113
102
94
92
92
94
95
93
90
84
74
65
57
51
46
41
38
37
38
38
41
47
53
55
62
71
83
98
119
142
171
201
239
281
318
343
348
326
275
197
99
-19
-142
-259
-364
-446
-507
-542
-554
-545
-519
-484
-448
-412
-377
-344
-317
-295
-281
-275
-274
-268
-255
-238
-215
-189
-165
-146
-128
-113
-98
-87
-75
-66
-53
-37
-17
6
32
56
84
112
147
187
228
262
288
302
308
307
305
302
297
292
288
287
284
283
282
284
283
281
278
272
266
258
246
235
225
216
208
199
186
171
155
140
127
115
103
94
86
76
68
59
50
42
35
25
17
8
1
-11
-17
-23
-28
-34
-38
-42
-47
-53
-59
-64
-68
-72
-73
-74
-75
-77
-78
-78
-78
-76
-77
-77
-77
-78
-80
-79
-78
-78
-80
-81
-81
-83
-84
-83
-81
-80
-80
-80
-80
-82
-80
-80
-77
-74
-71
-73
-72
-72
-70
-71
-70
-69
-68
-67
-65
-63
-63
-64
-64
-62
-62
-61
-59
-58
-58
-56
-56
-56
-55
-54
-54
-53
-50
-48
-48
-47
-46
-44
-45
-45
-44
-46
-47
-47
-45
-44
-41
-38
-36
-36
-35
-35
-35
-35
-33
-35
-32
-32
-30
-30
-29
-29
-28
-29
-26
-24
-24
-27
-29
-29
-29
-29
-28
-27
-26
-24
-23
-22
-20
-19
-19
-19
-20
-20
-20
-17
-16
-14
-15
-15
-15
-15
-15
-15
-14
-15
-15
-15
-13
-14
-11
-11
-10
-10
-8
-8
-8
-7
-5
-4
-3
-5
-7
-11
-12
-11
-11
-11
-10
-9
-7
-5
2
5
7
7
5
3
2
3
2
5
7
11
11
9
5
-4
-10
-10
-8
-5
0
2
5
9
14
16
17
11
8
6
11
13
14
7
5
5
11
14
13
9
5
2
0
0
2
5
11
16
18
18
20
22
21
20
18
14
8
2
-6
-5
6
16
21
26
26
26
22
17
11
6
4
5
11
18
26
29
28
21
15
9
5
2
4
5
11
17
22
23
24
18
11
5
7
17
38
68
105
141
173
203
243
287
327
368
407
440
466
483
467
410
305
194
91
-8
-82
-139
-188
-216
-235
-245
-253
-257
-257
-254
-248
-247
-245
-239
-230
-219
-200
-174
-134
-85
-26
35
81
113
137
149
162
180
203
220
232
236
234
228
219
209
206
207
215
224
232
237
239
236
230
229
227
224
219
218
211
197
181
167
156
152
153
161
174
185
185
167
139
110
97
95
96
98
104
107
106
98
92
88
84
77
66
50
42
41
47
58
62
56
38
